 1.042057870E+03	 1.301599976E+03
 1.042624871E+03	 1.299000000E+03
 1.043191812E+03	 1.301199951E+03
 1.043758695E+03	 1.300599976E+03
 1.044325518E+03	 1.285599976E+03
 1.044892283E+03	 1.286400024E+03
 1.045458988E+03	 1.285400024E+03
 1.046025634E+03	 1.291000000E+03
 1.046592221E+03	 1.276400024E+03
 1.047158749E+03	 1.292199951E+03
 1.047725218E+03	 1.284400024E+03
 1.048291628E+03	 1.277800049E+03
 1.048857978E+03	 1.285400024E+03
 1.049424270E+03	 1.290599976E+03
 1.049990502E+03	 1.283000000E+03
 1.050556676E+03	 1.279599976E+03
 1.051122790E+03	 1.288199951E+03
 1.051688845E+03	 1.278199951E+03
 1.052254841E+03	 1.305000000E+03
 1.052820778E+03	 1.292800049E+03
 1.053386657E+03	 1.289800049E+03
 1.053952476E+03	 1.272800049E+03
 1.054518236E+03	 1.292000000E+03
 1.055083936E+03	 1.286199951E+03
 1.055649578E+03	 1.295400024E+03
 1.056215161E+03	 1.291400024E+03
 1.056780685E+03	 1.291000000E+03
 1.057346150E+03	 1.280800049E+03
 1.057911556E+03	 1.281400024E+03
 1.058476903E+03	 1.289599976E+03
 1.059042191E+03	 1.292199951E+03
 1.059607419E+03	 1.295599976E+03
 1.060172589E+03	 1.284800049E+03
 1.060737700E+03	 1.294800049E+03
 1.061302752E+03	 1.289400024E+03
 1.061867745E+03	 1.299599976E+03
 1.062432679E+03	 1.274800049E+03
 1.062997554E+03	 1.290000000E+03
 1.063562370E+03	 1.290599976E+03
 1.064127127E+03	 1.289599976E+03
 1.064691825E+03	 1.296400024E+03
 1.065256464E+03	 1.284599976E+03
 1.065821044E+03	 1.295199951E+03
 1.066385565E+03	 1.294000000E+03
 1.066950027E+03	 1.294599976E+03
 1.067514431E+03	 1.295599976E+03
 1.068078775E+03	 1.292000000E+03
 1.068643061E+03	 1.288800049E+03
 1.069207287E+03	 1.293000000E+03
 1.069771455E+03	 1.300000000E+03
 1.070335564E+03	 1.304800049E+03
 1.070899613E+03	 1.295599976E+03
 1.071463604E+03	 1.297599976E+03
 1.072027536E+03	 1.296400024E+03
 1.072591409E+03	 1.295000000E+03
 1.073155224E+03	 1.311400024E+03
 1.073718979E+03	 1.300599976E+03
 1.074282676E+03	 1.312000000E+03
 1.074846313E+03	 1.308599976E+03
 1.075409892E+03	 1.315000000E+03
 1.075973412E+03	 1.311599976E+03
 1.076536873E+03	 1.308400024E+03
 1.077100275E+03	 1.309400024E+03
 1.077663618E+03	 1.312599976E+03
 1.078226903E+03	 1.310000000E+03
 1.078790129E+03	 1.308000000E+03
 1.079353295E+03	 1.295599976E+03
 1.079916403E+03	 1.310800049E+03
 1.080479453E+03	 1.312400024E+03
 1.081042443E+03	 1.303599976E+03
 1.081605374E+03	 1.312599976E+03
 1.082168247E+03	 1.313800049E+03
 1.082731061E+03	 1.309800049E+03
 1.083293816E+03	 1.310000000E+03
 1.083856512E+03	 1.298800049E+03
 1.084419150E+03	 1.314199951E+03
 1.084981729E+03	 1.314599976E+03
 1.085544249E+03	 1.323000000E+03
 1.086106710E+03	 1.317599976E+03
 1.086669112E+03	 1.334599976E+03
 1.087231456E+03	 1.323800049E+03
 1.087793741E+03	 1.325000000E+03
 1.088355967E+03	 1.312199951E+03
 1.088918134E+03	 1.316400024E+03
 1.089480243E+03	 1.329599976E+03
 1.090042293E+03	 1.312400024E+03
 1.090604284E+03	 1.330400024E+03
 1.091166216E+03	 1.329800049E+03
 1.091728090E+03	 1.319800049E+03
 1.092289905E+03	 1.319599976E+03
 1.092851661E+03	 1.333800049E+03
 1.093413358E+03	 1.327199951E+03
 1.093974997E+03	 1.316199951E+03
 1.094536577E+03	 1.344599976E+03
 1.095098098E+03	 1.326000000E+03
 1.095659561E+03	 1.313400024E+03
 1.096220965E+03	 1.329800049E+03
 1.096782310E+03	 1.329599976E+03
 1.097343597E+03	 1.324199951E+03
 1.097904825E+03	 1.339199951E+03
 1.098465994E+03	 1.342000000E+03
 1.099027105E+03	 1.340199951E+03
 1.099588157E+03	 1.336199951E+03
 1.100149150E+03	 1.338599976E+03
 1.100710084E+03	 1.334400024E+03
 1.101270960E+03	 1.331599976E+03
 1.101831778E+03	 1.336199951E+03
 1.102392536E+03	 1.344000000E+03
 1.102953236E+03	 1.355400024E+03
 1.103513878E+03	 1.338599976E+03
 1.104074460E+03	 1.353400024E+03
 1.104634984E+03	 1.336000000E+03
 1.105195450E+03	 1.333000000E+03
 1.105755857E+03	 1.333000000E+03
 1.106316205E+03	 1.352199951E+03
 1.106876495E+03	 1.345400024E+03
 1.107436726E+03	 1.347000000E+03
 1.107996898E+03	 1.349599976E+03
 1.108557012E+03	 1.348199951E+03
 1.109117067E+03	 1.345199951E+03
 1.109677064E+03	 1.361800049E+03
 1.110237002E+03	 1.366000000E+03
 1.110796882E+03	 1.363199951E+03
 1.111356703E+03	 1.358599976E+03
 1.111916465E+03	 1.360199951E+03
 1.112476169E+03	 1.360199951E+03
 1.113035814E+03	 1.363000000E+03
 1.113595401E+03	 1.350400024E+03
 1.114154929E+03	 1.363400024E+03
 1.114714399E+03	 1.367400024E+03
 1.115273810E+03	 1.356400024E+03
 1.115833163E+03	 1.371400024E+03
 1.116392457E+03	 1.373400024E+03
 1.116951693E+03	 1.371000000E+03
 1.117510870E+03	 1.373400024E+03
 1.118069988E+03	 1.375199951E+03
 1.118629048E+03	 1.368199951E+03
 1.119188050E+03	 1.382199951E+03
 1.119746993E+03	 1.388400024E+03
 1.120305877E+03	 1.378400024E+03
 1.120864703E+03	 1.389400024E+03
 1.121423471E+03	 1.382199951E+03
 1.121982180E+03	 1.381599976E+03
 1.122540831E+03	 1.385599976E+03
 1.123099423E+03	 1.378000000E+03
 1.123657957E+03	 1.391599976E+03
 1.124216432E+03	 1.382800049E+03
 1.124774849E+03	 1.395400024E+03
 1.125333207E+03	 1.379599976E+03
 1.125891507E+03	 1.381599976E+03
 1.126449748E+03	 1.387000000E+03
 1.127007931E+03	 1.390800049E+03
 1.127566056E+03	 1.393599976E+03
 1.128124122E+03	 1.380000000E+03
 1.128682130E+03	 1.396599976E+03
 1.129240079E+03	 1.394000000E+03
 1.129797970E+03	 1.395400024E+03
 1.130355802E+03	 1.404599976E+03
 1.130913576E+03	 1.406400024E+03
 1.131471292E+03	 1.405800049E+03
 1.132028949E+03	 1.414599976E+03
 1.132586548E+03	 1.404599976E+03
 1.133144089E+03	 1.391400024E+03
 1.133701571E+03	 1.413199951E+03
 1.134258995E+03	 1.415199951E+03
 1.134816360E+03	 1.418400024E+03
 1.135373667E+03	 1.417199951E+03
 1.135930916E+03	 1.419400024E+03
 1.136488106E+03	 1.415800049E+03
 1.137045238E+03	 1.418599976E+03
 1.137602311E+03	 1.427800049E+03
 1.138159327E+03	 1.407199951E+03
 1.138716284E+03	 1.425800049E+03
 1.139273182E+03	 1.430000000E+03
 1.139830022E+03	 1.417599976E+03
 1.140386804E+03	 1.415800049E+03
 1.140943528E+03	 1.414199951E+03
 1.141500193E+03	 1.411800049E+03
 1.142056800E+03	 1.418599976E+03
 1.142613349E+03	 1.427599976E+03
 1.143169839E+03	 1.439800049E+03
 1.143726271E+03	 1.430199951E+03
 1.144282645E+03	 1.422199951E+03
 1.144838960E+03	 1.427400024E+03
 1.145395218E+03	 1.432000000E+03
 1.145951417E+03	 1.425400024E+03
 1.146507557E+03	 1.440199951E+03
 1.147063640E+03	 1.440599976E+03
 1.147619664E+03	 1.437000000E+03
 1.148175630E+03	 1.431599976E+03
 1.148731537E+03	 1.438800049E+03
 1.149287386E+03	 1.430199951E+03
 1.149843178E+03	 1.438800049E+03
 1.150398910E+03	 1.448800049E+03
 1.150954585E+03	 1.443199951E+03
 1.151510201E+03	 1.441400024E+03
 1.152065760E+03	 1.451599976E+03
 1.152621260E+03	 1.421599976E+03
 1.153176701E+03	 1.435400024E+03
 1.153732085E+03	 1.452800049E+03
 1.154287410E+03	 1.453400024E+03
 1.154842677E+03	 1.447800049E+03
 1.155397886E+03	 1.445599976E+03
 1.155953037E+03	 1.455599976E+03
 1.156508129E+03	 1.464800049E+03
 1.157063164E+03	 1.440000000E+03
 1.157618140E+03	 1.453000000E+03
 1.158173058E+03	 1.442199951E+03
 1.158727917E+03	 1.455000000E+03
 1.159282719E+03	 1.449599976E+03
 1.159837463E+03	 1.458400024E+03
 1.160392148E+03	 1.459199951E+03
 1.160946775E+03	 1.462800049E+03
 1.161501344E+03	 1.451199951E+03
 1.162055855E+03	 1.464800049E+03
 1.162610308E+03	 1.459400024E+03
 1.163164702E+03	 1.460000000E+03
 1.163719039E+03	 1.464400024E+03
 1.164273317E+03	 1.455400024E+03
 1.164827537E+03	 1.471199951E+03
 1.165381699E+03	 1.452199951E+03
 1.165935803E+03	 1.472199951E+03
 1.166489849E+03	 1.462000000E+03
 1.167043837E+03	 1.459000000E+03
 1.167597767E+03	 1.461800049E+03
 1.168151638E+03	 1.448000000E+03
 1.168705452E+03	 1.471199951E+03
 1.169259207E+03	 1.456000000E+03
 1.169812904E+03	 1.479599976E+03
 1.170366544E+03	 1.461599976E+03
 1.170920125E+03	 1.476199951E+03
 1.171473648E+03	 1.483599976E+03
 1.172027113E+03	 1.466400024E+03
 1.172580520E+03	 1.473599976E+03
 1.173133869E+03	 1.485400024E+03
 1.173687160E+03	 1.462800049E+03
 1.174240393E+03	 1.476800049E+03
 1.174793567E+03	 1.472599976E+03
 1.175346684E+03	 1.476599976E+03
 1.175899743E+03	 1.469400024E+03
 1.176452744E+03	 1.467599976E+03
 1.177005686E+03	 1.482800049E+03
 1.177558571E+03	 1.481800049E+03
 1.178111398E+03	 1.480000000E+03
 1.178664167E+03	 1.496800049E+03
 1.179216877E+03	 1.469599976E+03
 1.179769530E+03	 1.475400024E+03
 1.180322125E+03	 1.489800049E+03
 1.180874661E+03	 1.482800049E+03
 1.181427140E+03	 1.475800049E+03
 1.181979561E+03	 1.494199951E+03
 1.182531924E+03	 1.488800049E+03
 1.183084228E+03	 1.485599976E+03
 1.183636475E+03	 1.481000000E+03
 1.184188664E+03	 1.487599976E+03
 1.184740795E+03	 1.484800049E+03
 1.185292868E+03	 1.488800049E+03
 1.185844883E+03	 1.489800049E+03
 1.186396840E+03	 1.479199951E+03
 1.186948739E+03	 1.481000000E+03
 1.187500581E+03	 1.484199951E+03
 1.188052364E+03	 1.488199951E+03
 1.188604089E+03	 1.475000000E+03
 1.189155757E+03	 1.504800049E+03
 1.189707366E+03	 1.479599976E+03
 1.190258918E+03	 1.490599976E+03
 1.190810412E+03	 1.498199951E+03
 1.191361847E+03	 1.506599976E+03
 1.191913225E+03	 1.494800049E+03
 1.192464545E+03	 1.492599976E+03
 1.193015808E+03	 1.502800049E+03
 1.193567012E+03	 1.510199951E+03
 1.194118158E+03	 1.513199951E+03
 1.194669247E+03	 1.504199951E+03
 1.195220278E+03	 1.489199951E+03
 1.195771250E+03	 1.521400024E+03
 1.196322165E+03	 1.513199951E+03
 1.196873022E+03	 1.501599976E+03
 1.197423822E+03	 1.500800049E+03
 1.197974563E+03	 1.511199951E+03
 1.198525247E+03	 1.493199951E+03
 1.199075872E+03	 1.514800049E+03
 1.199626440E+03	 1.508800049E+03
 1.200176950E+03	 1.515199951E+03
 1.200727403E+03	 1.495599976E+03
 1.201277797E+03	 1.514199951E+03
 1.201828134E+03	 1.520199951E+03
 1.202378412E+03	 1.529199951E+03
 1.202928633E+03	 1.522800049E+03
 1.203478797E+03	 1.510000000E+03
 1.204028902E+03	 1.531400024E+03
 1.204578950E+03	 1.521199951E+03
 1.205128940E+03	 1.511800049E+03
 1.205678872E+03	 1.515400024E+03
 1.206228746E+03	 1.531199951E+03
 1.206778562E+03	 1.539000000E+03
 1.207328321E+03	 1.536000000E+03
 1.207878022E+03	 1.528000000E+03
 1.208427665E+03	 1.533199951E+03
 1.208977251E+03	 1.544400024E+03
 1.209526779E+03	 1.528400024E+03
 1.210076249E+03	 1.526000000E+03
 1.210625661E+03	 1.540800049E+03
 1.211175015E+03	 1.560400024E+03
 1.211724312E+03	 1.530599976E+03
 1.212273551E+03	 1.534599976E+03
 1.212822733E+03	 1.563800049E+03
 1.213371856E+03	 1.545599976E+03
 1.213920922E+03	 1.549800049E+03
 1.214469930E+03	 1.557400024E+03
 1.215018881E+03	 1.548000000E+03
 1.215567774E+03	 1.545800049E+03
 1.216116609E+03	 1.535400024E+03
 1.216665386E+03	 1.555199951E+03
 1.217214106E+03	 1.548199951E+03
 1.217762768E+03	 1.546199951E+03
 1.218311372E+03	 1.552400024E+03
 1.218859919E+03	 1.545400024E+03
 1.219408408E+03	 1.568800049E+03
 1.219956840E+03	 1.560000000E+03
 1.220505213E+03	 1.566199951E+03
 1.221053530E+03	 1.556199951E+03
 1.221601788E+03	 1.561199951E+03
 1.222149989E+03	 1.541599976E+03
 1.222698132E+03	 1.563599976E+03
 1.223246218E+03	 1.554199951E+03
 1.223794245E+03	 1.568599976E+03
 1.224342216E+03	 1.560400024E+03
 1.224890128E+03	 1.550599976E+03
 1.225437983E+03	 1.561800049E+03
 1.225985781E+03	 1.576199951E+03
 1.226533521E+03	 1.568599976E+03
 1.227081203E+03	 1.559400024E+03
 1.227628828E+03	 1.568800049E+03
 1.228176395E+03	 1.581199951E+03
 1.228723904E+03	 1.568400024E+03
 1.229271356E+03	 1.576400024E+03
 1.229818750E+03	 1.581599976E+03
 1.230366087E+03	 1.585800049E+03
 1.230913366E+03	 1.580000000E+03
 1.231460588E+03	 1.584199951E+03
 1.232007752E+03	 1.588800049E+03
 1.232554858E+03	 1.579800049E+03
 1.233101907E+03	 1.572800049E+03
 1.233648898E+03	 1.593000000E+03
 1.234195832E+03	 1.590599976E+03
 1.234742709E+03	 1.595599976E+03
 1.235289527E+03	 1.584800049E+03
 1.235836289E+03	 1.587000000E+03
 1.236382992E+03	 1.596199951E+03
 1.236929639E+03	 1.608199951E+03
 1.237476227E+03	 1.604400024E+03
 1.238022758E+03	 1.595199951E+03
 1.238569232E+03	 1.612800049E+03
 1.239115648E+03	 1.604400024E+03
 1.239662007E+03	 1.587400024E+03
 1.240208308E+03	 1.611400024E+03
 1.240754552E+03	 1.607199951E+03
 1.241300738E+03	 1.598000000E+03
 1.241846867E+03	 1.604800049E+03
 1.242392938E+03	 1.598599976E+03
 1.242938952E+03	 1.613000000E+03
 1.243484908E+03	 1.621199951E+03
 1.244030807E+03	 1.608000000E+03
 1.244576648E+03	 1.618000000E+03
 1.245122432E+03	 1.628000000E+03
 1.245668159E+03	 1.630400024E+03
 1.246213828E+03	 1.630000000E+03
 1.246759440E+03	 1.621599976E+03
 1.247304994E+03	 1.637800049E+03
 1.247850490E+03	 1.634199951E+03
 1.248395930E+03	 1.622800049E+03
 1.248941312E+03	 1.630000000E+03
 1.249486636E+03	 1.623800049E+03
 1.250031903E+03	 1.642199951E+03
 1.250577113E+03	 1.629199951E+03
 1.251122265E+03	 1.646599976E+03
 1.251667360E+03	 1.632800049E+03
 1.252212398E+03	 1.640800049E+03
 1.252757378E+03	 1.661000000E+03
 1.253302301E+03	 1.640800049E+03
 1.253847166E+03	 1.648800049E+03
 1.254391974E+03	 1.657599976E+03
 1.254936725E+03	 1.655800049E+03
 1.255481418E+03	 1.665400024E+03
 1.256026054E+03	 1.669400024E+03
 1.256570632E+03	 1.650000000E+03
 1.257115154E+03	 1.687199951E+03
 1.257659617E+03	 1.707199951E+03
 1.258204024E+03	 1.704800049E+03
 1.258748373E+03	 1.724800049E+03
 1.259292665E+03	 1.721599976E+03
 1.259836900E+03	 1.733199951E+03
 1.260381077E+03	 1.763400024E+03
 1.260925197E+03	 1.764400024E+03
 1.261469259E+03	 1.812599976E+03
 1.262013264E+03	 1.809199951E+03
 1.262557212E+03	 1.809599976E+03
 1.263101103E+03	 1.820800049E+03
 1.263644936E+03	 1.799400024E+03
 1.264188712E+03	 1.790199951E+03
 1.264732431E+03	 1.779400024E+03
 1.265276093E+03	 1.737000000E+03
 1.265819697E+03	 1.737199951E+03
 1.266363244E+03	 1.712199951E+03
 1.266906734E+03	 1.739000000E+03
 1.267450166E+03	 1.741400024E+03
 1.267993541E+03	 1.736400024E+03
 1.268536859E+03	 1.712599976E+03
 1.269080120E+03	 1.749000000E+03
 1.269623323E+03	 1.736400024E+03
 1.270166469E+03	 1.733199951E+03
 1.270709558E+03	 1.735400024E+03
 1.271252590E+03	 1.727400024E+03
 1.271795564E+03	 1.727000000E+03
 1.272338481E+03	 1.742400024E+03
 1.272881341E+03	 1.746800049E+03
 1.273424144E+03	 1.744199951E+03
 1.273966890E+03	 1.741199951E+03
 1.274509578E+03	 1.746800049E+03
 1.275052209E+03	 1.772400024E+03
 1.275594783E+03	 1.774800049E+03
 1.276137300E+03	 1.771800049E+03
 1.276679760E+03	 1.803800049E+03
 1.277222162E+03	 1.801000000E+03
 1.277764507E+03	 1.826400024E+03
 1.278306796E+03	 1.859599976E+03
 1.278849026E+03	 1.919599976E+03
 1.279391200E+03	 1.990000000E+03
 1.279933317E+03	 2.134399902E+03
 1.280475376E+03	 2.435000000E+03
 1.281017378E+03	 3.055000000E+03
 1.281559324E+03	 4.360000000E+03
 1.282101212E+03	 5.788200195E+03
 1.282643042E+03	 5.777600098E+03
 1.283184816E+03	 4.316000000E+03
 1.283726533E+03	 3.140199951E+03
 1.284268192E+03	 2.499199951E+03
 1.284809795E+03	 2.190600098E+03
 1.285351340E+03	 2.056399902E+03
 1.285892828E+03	 1.963599976E+03
 1.286434259E+03	 1.914800049E+03
 1.286975633E+03	 1.868400024E+03
 1.287516950E+03	 1.829199951E+03
 1.288058209E+03	 1.813800049E+03
 1.288599412E+03	 1.812000000E+03
 1.289140558E+03	 1.784000000E+03
 1.289681646E+03	 1.787599976E+03
 1.290222677E+03	 1.786400024E+03
 1.290763652E+03	 1.774199951E+03
 1.291304569E+03	 1.755000000E+03
 1.291845429E+03	 1.755599976E+03
 1.292386232E+03	 1.748599976E+03
 1.292926979E+03	 1.755800049E+03
 1.293467668E+03	 1.742400024E+03
 1.294008300E+03	 1.750599976E+03
 1.294548875E+03	 1.762400024E+03
 1.295089392E+03	 1.745599976E+03
 1.295629853E+03	 1.741199951E+03
 1.296170257E+03	 1.744599976E+03
 1.296710604E+03	 1.747199951E+03
 1.297250894E+03	 1.742800049E+03
 1.297791127E+03	 1.741599976E+03
 1.298331303E+03	 1.741400024E+03
 1.298871422E+03	 1.723800049E+03
 1.299411483E+03	 1.745800049E+03
 1.299951488E+03	 1.734599976E+03
 1.300491436E+03	 1.748400024E+03
 1.301031327E+03	 1.755599976E+03
 1.301571161E+03	 1.737199951E+03
 1.302110938E+03	 1.737400024E+03
 1.302650658E+03	 1.725000000E+03
 1.303190321E+03	 1.737599976E+03
 1.303729927E+03	 1.730000000E+03
 1.304269476E+03	 1.719599976E+03
 1.304808968E+03	 1.732000000E+03
 1.305348403E+03	 1.723800049E+03
 1.305887781E+03	 1.735800049E+03
 1.306427102E+03	 1.740800049E+03
 1.306966367E+03	 1.728599976E+03
 1.307505574E+03	 1.741000000E+03
 1.308044725E+03	 1.731599976E+03
 1.308583818E+03	 1.727400024E+03
 1.309122855E+03	 1.728599976E+03
 1.309661835E+03	 1.722400024E+03
 1.310200757E+03	 1.717400024E+03
 1.310739623E+03	 1.735199951E+03
 1.311278432E+03	 1.739400024E+03
 1.311817185E+03	 1.743800049E+03
 1.312355880E+03	 1.732000000E+03
 1.312894518E+03	 1.732400024E+03
 1.313433100E+03	 1.736000000E+03
 1.313971624E+03	 1.735800049E+03
 1.314510092E+03	 1.749199951E+03
 1.315048503E+03	 1.725000000E+03
 1.315586857E+03	 1.754199951E+03
 1.316125154E+03	 1.729400024E+03
 1.316663394E+03	 1.754199951E+03
 1.317201578E+03	 1.751199951E+03
 1.317739704E+03	 1.736800049E+03
 1.318277774E+03	 1.743000000E+03
 1.318815787E+03	 1.750400024E+03
 1.319353743E+03	 1.737599976E+03
 1.319891642E+03	 1.738000000E+03
 1.320429485E+03	 1.730400024E+03
 1.320967270E+03	 1.739800049E+03
 1.321504999E+03	 1.755000000E+03
 1.322042671E+03	 1.748400024E+03
 1.322580286E+03	 1.752400024E+03
 1.323117845E+03	 1.750199951E+03
 1.323655346E+03	 1.746599976E+03
 1.324192791E+03	 1.771400024E+03
 1.324730179E+03	 1.771000000E+03
 1.325267511E+03	 1.763400024E+03
 1.325804785E+03	 1.757599976E+03
 1.326342003E+03	 1.762599976E+03
 1.326879164E+03	 1.761000000E+03
 1.327416268E+03	 1.762199951E+03
 1.327953315E+03	 1.761400024E+03
 1.328490306E+03	 1.760000000E+03
 1.329027240E+03	 1.745599976E+03
 1.329564117E+03	 1.769199951E+03
 1.330100937E+03	 1.753599976E+03
 1.330637701E+03	 1.764599976E+03
 1.331174408E+03	 1.757199951E+03
 1.331711058E+03	 1.774199951E+03
 1.332247652E+03	 1.755000000E+03
 1.332784188E+03	 1.777000000E+03
 1.333320668E+03	 1.763599976E+03
 1.333857092E+03	 1.764599976E+03
 1.334393458E+03	 1.778599976E+03
 1.334929768E+03	 1.769800049E+03
 1.335466022E+03	 1.770800049E+03
 1.336002218E+03	 1.761400024E+03
 1.336538358E+03	 1.753000000E+03
 1.337074441E+03	 1.776199951E+03
 1.337610468E+03	 1.777800049E+03
 1.338146438E+03	 1.766800049E+03
 1.338682351E+03	 1.786199951E+03
 1.339218207E+03	 1.773400024E+03
 1.339754007E+03	 1.782199951E+03
 1.340289750E+03	 1.777199951E+03
 1.340825437E+03	 1.776199951E+03
 1.341361067E+03	 1.785199951E+03
 1.341896640E+03	 1.814800049E+03
 1.342432156E+03	 1.776000000E+03
 1.342967616E+03	 1.777199951E+03
 1.343503020E+03	 1.769599976E+03
 1.344038366E+03	 1.764000000E+03
 1.344573657E+03	 1.772000000E+03
 1.345108890E+03	 1.779400024E+03
 1.345644067E+03	 1.760800049E+03
 1.346179187E+03	 1.771400024E+03
 1.346714251E+03	 1.780800049E+03
 1.347249258E+03	 1.786400024E+03
 1.347784208E+03	 1.776800049E+03
 1.348319102E+03	 1.782199951E+03
 1.348853939E+03	 1.780000000E+03
 1.349388720E+03	 1.776000000E+03
 1.349923444E+03	 1.782800049E+03
 1.350458112E+03	 1.773800049E+03
 1.350992723E+03	 1.790199951E+03
 1.351527277E+03	 1.791000000E+03
 1.352061775E+03	 1.773400024E+03
 1.352596216E+03	 1.794599976E+03
 1.353130601E+03	 1.785599976E+03
 1.353664929E+03	 1.795599976E+03
 1.354199201E+03	 1.785400024E+03
 1.354733416E+03	 1.790199951E+03
 1.355267575E+03	 1.789599976E+03
 1.355801677E+03	 1.803599976E+03
 1.356335722E+03	 1.794000000E+03
 1.356869711E+03	 1.821000000E+03
 1.357403644E+03	 1.782000000E+03
 1.357937520E+03	 1.790400024E+03
 1.358471340E+03	 1.803199951E+03
 1.359005103E+03	 1.800000000E+03
 1.359538809E+03	 1.806800049E+03
 1.360072459E+03	 1.820199951E+03
 1.360606053E+03	 1.804199951E+03
 1.361139590E+03	 1.805000000E+03
 1.361673070E+03	 1.795800049E+03
 1.362206494E+03	 1.818199951E+03
 1.362739862E+03	 1.812400024E+03
 1.363273173E+03	 1.821199951E+03
 1.363806428E+03	 1.847199951E+03
 1.364339626E+03	 1.846599976E+03
 1.364872768E+03	 1.841199951E+03
 1.365405853E+03	 1.829800049E+03
 1.365938882E+03	 1.824599976E+03
 1.366471855E+03	 1.810000000E+03
 1.367004771E+03	 1.822800049E+03
 1.367537630E+03	 1.821400024E+03
 1.368070434E+03	 1.861599976E+03
 1.368603180E+03	 1.868800049E+03
 1.369135871E+03	 1.905000000E+03
 1.369668505E+03	 1.970400024E+03
 1.370201082E+03	 1.951000000E+03
 1.370733603E+03	 1.906000000E+03
 1.371266068E+03	 1.861599976E+03
 1.371798476E+03	 1.835800049E+03
 1.372330828E+03	 1.873599976E+03
 1.372863124E+03	 1.863000000E+03
 1.373395363E+03	 1.856199951E+03
 1.373927546E+03	 1.870000000E+03
 1.374459672E+03	 1.867400024E+03
 1.374991743E+03	 1.878599976E+03
 1.375523756E+03	 1.894800049E+03
 1.376055714E+03	 1.877199951E+03
 1.376587615E+03	 1.915400024E+03
 1.377119459E+03	 1.896199951E+03
 1.377651248E+03	 1.922199951E+03
 1.378182980E+03	 1.901000000E+03
 1.378714655E+03	 1.923599976E+03
 1.379246274E+03	 1.931800049E+03
 1.379777837E+03	 1.953599976E+03
 1.380309344E+03	 1.965800049E+03
 1.380840794E+03	 1.985000000E+03
 1.381372188E+03	 2.008000000E+03
 1.381903526E+03	 2.055800049E+03
 1.382434808E+03	 2.074000000E+03
 1.382966033E+03	 2.136000000E+03
 1.383497201E+03	 2.229800049E+03
 1.384028314E+03	 2.366199951E+03
 1.384559370E+03	 2.596600098E+03
 1.385090370E+03	 3.003600098E+03
 1.385621314E+03	 3.832199951E+03
 1.386152201E+03	 5.713799805E+03
 1.386683032E+03	 8.835400391E+03
 1.387213807E+03	 1.013440039E+04
 1.387744526E+03	 7.865000000E+03
 1.388275188E+03	 5.124399902E+03
 1.388805794E+03	 3.587800049E+03
 1.389336344E+03	 2.866000000E+03
 1.389866838E+03	 2.505399902E+03
 1.390397275E+03	 2.324600098E+03
 1.390927656E+03	 2.214600098E+03
 1.391457981E+03	 2.136600098E+03
 1.391988250E+03	 2.088600098E+03
 1.392518462E+03	 2.052800049E+03
 1.393048619E+03	 1.994800049E+03
 1.393578719E+03	 2.007199951E+03
 1.394108762E+03	 1.969199951E+03
 1.394638750E+03	 1.973000000E+03
 1.395168682E+03	 1.961599976E+03
 1.395698557E+03	 1.952599976E+03
 1.396228376E+03	 1.950800049E+03
 1.396758139E+03	 1.947000000E+03
 1.397287845E+03	 1.925400024E+03
 1.397817496E+03	 1.940800049E+03
 1.398347090E+03	 1.932599976E+03
 1.398876628E+03	 1.931000000E+03
 1.399406110E+03	 1.915599976E+03
 1.399935536E+03	 1.920199951E+03
 1.400464906E+03	 1.913800049E+03
 1.400994219E+03	 1.909400024E+03
 1.401523477E+03	 1.927199951E+03
 1.402052678E+03	 1.922400024E+03
 1.402581823E+03	 1.942800049E+03
 1.403110912E+03	 1.932199951E+03
 1.403639945E+03	 1.937599976E+03
 1.404168922E+03	 1.958800049E+03
 1.404697842E+03	 1.973199951E+03
 1.405226707E+03	 1.987199951E+03
 1.405755515E+03	 2.000199951E+03
 1.406284267E+03	 2.030400024E+03
 1.406812964E+03	 2.056600098E+03
 1.407341604E+03	 2.079399902E+03
 1.407870188E+03	 2.116800049E+03
 1.408398716E+03	 2.137399902E+03
 1.408927187E+03	 2.148800049E+03
 1.409455603E+03	 2.129199951E+03
 1.409983963E+03	 2.091800049E+03
 1.410512266E+03	 2.040400024E+03
 1.411040514E+03	 1.997599976E+03
 1.411568705E+03	 1.963599976E+03
 1.412096841E+03	 1.953000000E+03
 1.412624920E+03	 1.915000000E+03
 1.413152944E+03	 1.888000000E+03
 1.413680911E+03	 1.883000000E+03
 1.414208822E+03	 1.863199951E+03
 1.414736677E+03	 1.881400024E+03
 1.415264476E+03	 1.869400024E+03
 1.415792220E+03	 1.870800049E+03
 1.416319907E+03	 1.875400024E+03
 1.416847538E+03	 1.869800049E+03
 1.417375113E+03	 1.867800049E+03
 1.417902632E+03	 1.869000000E+03
 1.418430095E+03	 1.853000000E+03
 1.418957502E+03	 1.871400024E+03
 1.419484853E+03	 1.842800049E+03
 1.420012148E+03	 1.862599976E+03
 1.420539387E+03	 1.856199951E+03
 1.421066570E+03	 1.851400024E+03
 1.421593698E+03	 1.862000000E+03
 1.422120769E+03	 1.863000000E+03
 1.422647784E+03	 1.823199951E+03
 1.423174743E+03	 1.859599976E+03
 1.423701647E+03	 1.862800049E+03
 1.424228494E+03	 1.832599976E+03
 1.424755285E+03	 1.852599976E+03
 1.425282021E+03	 1.857599976E+03
 1.425808700E+03	 1.843599976E+03
 1.426335324E+03	 1.851000000E+03
 1.426861891E+03	 1.841000000E+03
 1.427388403E+03	 1.841000000E+03
 1.427914859E+03	 1.837599976E+03
 1.428441259E+03	 1.836400024E+03
 1.428967602E+03	 1.847199951E+03
 1.429493890E+03	 1.832599976E+03
 1.430020123E+03	 1.828800049E+03
 1.430546299E+03	 1.827000000E+03
 1.431072419E+03	 1.845599976E+03
 1.431598483E+03	 1.837199951E+03
 1.432124492E+03	 1.825000000E+03
 1.432650445E+03	 1.847599976E+03
 1.433176341E+03	 1.849599976E+03
 1.433702182E+03	 1.856000000E+03
 1.434227967E+03	 1.838000000E+03
 1.434753696E+03	 1.849800049E+03
 1.435279370E+03	 1.846000000E+03
 1.435804987E+03	 1.846000000E+03
 1.436330549E+03	 1.846199951E+03
 1.436856054E+03	 1.846599976E+03
 1.437381504E+03	 1.841199951E+03
 1.437906898E+03	 1.845400024E+03
 1.438432236E+03	 1.832599976E+03
 1.438957519E+03	 1.832400024E+03
 1.439482745E+03	 1.856400024E+03
 1.440007916E+03	 1.837199951E+03
 1.440533031E+03	 1.828599976E+03
 1.441058090E+03	 1.842000000E+03
 1.441583093E+03	 1.854800049E+03
 1.442108041E+03	 1.821599976E+03
 1.442632932E+03	 1.825000000E+03
 1.443157768E+03	 1.825199951E+03
 1.443682548E+03	 1.825800049E+03
 1.444207272E+03	 1.839599976E+03
 1.444731941E+03	 1.829199951E+03
 1.445256554E+03	 1.841800049E+03
 1.445781111E+03	 1.831599976E+03
 1.446305612E+03	 1.848199951E+03
 1.446830057E+03	 1.851199951E+03
 1.447354447E+03	 1.840199951E+03
 1.447878781E+03	 1.841599976E+03
 1.448403059E+03	 1.844000000E+03
 1.448927281E+03	 1.841400024E+03
 1.449451448E+03	 1.841199951E+03
 1.449975559E+03	 1.844000000E+03
 1.450499614E+03	 1.844800049E+03
 1.451023613E+03	 1.837599976E+03
 1.451547557E+03	 1.828599976E+03
 1.452071445E+03	 1.836199951E+03
 1.452595277E+03	 1.859199951E+03
 1.453119054E+03	 1.838599976E+03
 1.453642774E+03	 1.865000000E+03
 1.454166440E+03	 1.854800049E+03
 1.454690049E+03	 1.849599976E+03
 1.455213603E+03	 1.832199951E+03
 1.455737101E+03	 1.837400024E+03
 1.456260543E+03	 1.845800049E+03
 1.456783930E+03	 1.841599976E+03
 1.457307261E+03	 1.853000000E+03
 1.457830536E+03	 1.837599976E+03
 1.458353756E+03	 1.835000000E+03
 1.458876920E+03	 1.833000000E+03
 1.459400028E+03	 1.852400024E+03
 1.459923081E+03	 1.847800049E+03
 1.460446078E+03	 1.836199951E+03
 1.460969019E+03	 1.830199951E+03
 1.461491905E+03	 1.858199951E+03
 1.462014735E+03	 1.832000000E+03
 1.462537509E+03	 1.843400024E+03
 1.463060228E+03	 1.846400024E+03
 1.463582891E+03	 1.829599976E+03
 1.464105499E+03	 1.837000000E+03
 1.464628051E+03	 1.834000000E+03
 1.465150547E+03	 1.850000000E+03
 1.465672988E+03	 1.836800049E+03
 1.466195373E+03	 1.841599976E+03
 1.466717702E+03	 1.861000000E+03
 1.467239976E+03	 1.844400024E+03
 1.467762195E+03	 1.849400024E+03
 1.468284357E+03	 1.842800049E+03
 1.468806464E+03	 1.857000000E+03
 1.469328516E+03	 1.836800049E+03
 1.469850512E+03	 1.841599976E+03
 1.470372452E+03	 1.837400024E+03
 1.470894337E+03	 1.857599976E+03
 1.471416167E+03	 1.870199951E+03
 1.471937940E+03	 1.840199951E+03
 1.472459659E+03	 1.846000000E+03
 1.472981321E+03	 1.854400024E+03
 1.473502928E+03	 1.849800049E+03
 1.474024480E+03	 1.845800049E+03
 1.474545976E+03	 1.842599976E+03
 1.475067416E+03	 1.844199951E+03
 1.475588801E+03	 1.843400024E+03
 1.476110131E+03	 1.865400024E+03
 1.476631405E+03	 1.853599976E+03
 1.477152623E+03	 1.848800049E+03
 1.477673786E+03	 1.866400024E+03
 1.478194894E+03	 1.831400024E+03
 1.478715946E+03	 1.866400024E+03
 1.479236942E+03	 1.855000000E+03
 1.479757883E+03	 1.839400024E+03
 1.480278768E+03	 1.837800049E+03
 1.480799598E+03	 1.844800049E+03
 1.481320373E+03	 1.846599976E+03
 1.481841092E+03	 1.854400024E+03
 1.482361755E+03	 1.877599976E+03
 1.482882363E+03	 1.847400024E+03
 1.483402916E+03	 1.860199951E+03
 1.483923413E+03	 1.841000000E+03
 1.484443855E+03	 1.864599976E+03
 1.484964241E+03	 1.865800049E+03
 1.485484572E+03	 1.848800049E+03
 1.486004847E+03	 1.850800049E+03
 1.486525067E+03	 1.843599976E+03
 1.487045232E+03	 1.852199951E+03
 1.487565341E+03	 1.841400024E+03
 1.488085395E+03	 1.860199951E+03
 1.488605393E+03	 1.850599976E+03
 1.489125336E+03	 1.860599976E+03
 1.489645223E+03	 1.838000000E+03
 1.490165055E+03	 1.849199951E+03
 1.490684832E+03	 1.853000000E+03
 1.491204553E+03	 1.843000000E+03
 1.491724219E+03	 1.851000000E+03
 1.492243829E+03	 1.865199951E+03
 1.492763385E+03	 1.863400024E+03
 1.493282884E+03	 1.858199951E+03
 1.493802329E+03	 1.853800049E+03
 1.494321718E+03	 1.851000000E+03
 1.494841051E+03	 1.862800049E+03
 1.495360329E+03	 1.861000000E+03
 1.495879552E+03	 1.873599976E+03
 1.496398720E+03	 1.849400024E+03
 1.496917832E+03	 1.868599976E+03
 1.497436889E+03	 1.867599976E+03
 1.497955890E+03	 1.855199951E+03
 1.498474837E+03	 1.862800049E+03
 1.498993727E+03	 1.840800049E+03
 1.499512563E+03	 1.855199951E+03
 1.500031343E+03	 1.859800049E+03
 1.500550068E+03	 1.860199951E+03
 1.501068738E+03	 1.868400024E+03
 1.501587352E+03	 1.852400024E+03
 1.502105911E+03	 1.848400024E+03
 1.502624414E+03	 1.872800049E+03
 1.503142863E+03	 1.859000000E+03
 1.503661256E+03	 1.848000000E+03
 1.504179594E+03	 1.854400024E+03
 1.504697876E+03	 1.861800049E+03
 1.505216103E+03	 1.862800049E+03
 1.505734275E+03	 1.856400024E+03
 1.506252392E+03	 1.848800049E+03
 1.506770454E+03	 1.858400024E+03
 1.507288460E+03	 1.854800049E+03
 1.507806411E+03	 1.866599976E+03
 1.508324306E+03	 1.843000000E+03
 1.508842147E+03	 1.857000000E+03
 1.509359932E+03	 1.834400024E+03
 1.509877662E+03	 1.870599976E+03
 1.510395337E+03	 1.845000000E+03
 1.510912956E+03	 1.844800049E+03
 1.511430520E+03	 1.855800049E+03
 1.511948029E+03	 1.865000000E+03
 1.512465483E+03	 1.870000000E+03
 1.512982882E+03	 1.858199951E+03
 1.513500225E+03	 1.866800049E+03
 1.514017513E+03	 1.856800049E+03
 1.514534746E+03	 1.869199951E+03
 1.515051924E+03	 1.845199951E+03
 1.515569047E+03	 1.863199951E+03
 1.516086114E+03	 1.859599976E+03
 1.516603126E+03	 1.862000000E+03
 1.517120084E+03	 1.851000000E+03
 1.517636985E+03	 1.882599976E+03
 1.518153832E+03	 1.847000000E+03
 1.518670624E+03	 1.857400024E+03
 1.519187360E+03	 1.857800049E+03
 1.519704041E+03	 1.849800049E+03
 1.520220667E+03	 1.864199951E+03
 1.520737238E+03	 1.847199951E+03
 1.521253754E+03	 1.864599976E+03
 1.521770215E+03	 1.852800049E+03
 1.522286620E+03	 1.855800049E+03
 1.522802971E+03	 1.837599976E+03
 1.523319266E+03	 1.866400024E+03
 1.523835506E+03	 1.847599976E+03
 1.524351691E+03	 1.865199951E+03
 1.524867821E+03	 1.846199951E+03
 1.525383896E+03	 1.855000000E+03
 1.525899916E+03	 1.847199951E+03
 1.526415881E+03	 1.859000000E+03
 1.526931790E+03	 1.859199951E+03
 1.527447645E+03	 1.868800049E+03
 1.527963444E+03	 1.853599976E+03
 1.528479188E+03	 1.847800049E+03
 1.528994877E+03	 1.856000000E+03
 1.529510512E+03	 1.843400024E+03
 1.530026091E+03	 1.835000000E+03
 1.530541615E+03	 1.856800049E+03
 1.531057084E+03	 1.851400024E+03
 1.531572497E+03	 1.839599976E+03
 1.532087856E+03	 1.828800049E+03
 1.532603160E+03	 1.869000000E+03
 1.533118409E+03	 1.830400024E+03
 1.533633603E+03	 1.847000000E+03
 1.534148741E+03	 1.848000000E+03
 1.534663825E+03	 1.854199951E+03
 1.535178853E+03	 1.846199951E+03
 1.535693827E+03	 1.842199951E+03
 1.536208746E+03	 1.855800049E+03
 1.536723609E+03	 1.844000000E+03
 1.537238418E+03	 1.853199951E+03
 1.537753171E+03	 1.850000000E+03
 1.538267870E+03	 1.862800049E+03
 1.538782514E+03	 1.842400024E+03
 1.539297102E+03	 1.826000000E+03
 1.539811636E+03	 1.848000000E+03
 1.540326114E+03	 1.847000000E+03
 1.540840538E+03	 1.854400024E+03
 1.541354907E+03	 1.856199951E+03
 1.541869220E+03	 1.847800049E+03
 1.542383479E+03	 1.830400024E+03
 1.542897683E+03	 1.855599976E+03
 1.543411832E+03	 1.840000000E+03
 1.543925926E+03	 1.845000000E+03
 1.544439964E+03	 1.831800049E+03
 1.544953948E+03	 1.829400024E+03
 1.545467877E+03	 1.849199951E+03
 1.545981752E+03	 1.841800049E+03
 1.546495571E+03	 1.859000000E+03
 1.547009335E+03	 1.845599976E+03
 1.547523044E+03	 1.843599976E+03
 1.548036699E+03	 1.846199951E+03
 1.548550298E+03	 1.845000000E+03
 1.549063843E+03	 1.861199951E+03
 1.549577333E+03	 1.848199951E+03
 1.550090767E+03	 1.837400024E+03
 1.550604147E+03	 1.860599976E+03
 1.551117472E+03	 1.836400024E+03
 1.551630742E+03	 1.853800049E+03
 1.552143958E+03	 1.845199951E+03
 1.552657118E+03	 1.844599976E+03
 1.553170224E+03	 1.849599976E+03
 1.553683274E+03	 1.849599976E+03
 1.554196270E+03	 1.834800049E+03
 1.554709211E+03	 1.843800049E+03
 1.555222097E+03	 1.862800049E+03
 1.555734928E+03	 1.842599976E+03
 1.556247705E+03	 1.859599976E+03
 1.556760426E+03	 1.843400024E+03
 1.557273093E+03	 1.837199951E+03
 1.557785705E+03	 1.847400024E+03
 1.558298262E+03	 1.846800049E+03
 1.558810764E+03	 1.864199951E+03
 1.559323211E+03	 1.835199951E+03
 1.559835604E+03	 1.851000000E+03
 1.560347941E+03	 1.820400024E+03
 1.560860224E+03	 1.844400024E+03
 1.561372452E+03	 1.849000000E+03
 1.561884626E+03	 1.863800049E+03
 1.562396744E+03	 1.860000000E+03
 1.562908808E+03	 1.846400024E+03
 1.563420817E+03	 1.855199951E+03
 1.563932771E+03	 1.857000000E+03
 1.564444671E+03	 1.857000000E+03
 1.564956515E+03	 1.850000000E+03
 1.565468305E+03	 1.858400024E+03
 1.565980040E+03	 1.859400024E+03
 1.566491721E+03	 1.841199951E+03
 1.567003346E+03	 1.851000000E+03
 1.567514917E+03	 1.837400024E+03
 1.568026433E+03	 1.851400024E+03
 1.568537894E+03	 1.854400024E+03
 1.569049301E+03	 1.855000000E+03
 1.569560653E+03	 1.847000000E+03
 1.570071950E+03	 1.854800049E+03
 1.570583192E+03	 1.849599976E+03
 1.571094380E+03	 1.868199951E+03
 1.571605513E+03	 1.859400024E+03
 1.572116591E+03	 1.846800049E+03
 1.572627615E+03	 1.873000000E+03
 1.573138584E+03	 1.854400024E+03
 1.573649498E+03	 1.872400024E+03
 1.574160357E+03	 1.854599976E+03
 1.574671162E+03	 1.869599976E+03
 1.575181912E+03	 1.848000000E+03
 1.575692608E+03	 1.866599976E+03
 1.576203248E+03	 1.861800049E+03
 1.576713834E+03	 1.848800049E+03
 1.577224366E+03	 1.846599976E+03
 1.577734843E+03	 1.858199951E+03
 1.578245265E+03	 1.865800049E+03
 1.578755632E+03	 1.864000000E+03
 1.579265945E+03	 1.862800049E+03
 1.579776203E+03	 1.872199951E+03
 1.580286406E+03	 1.857000000E+03
 1.580796555E+03	 1.859800049E+03
 1.581306649E+03	 1.861599976E+03
 1.581816689E+03	 1.860199951E+03
 1.582326674E+03	 1.859000000E+03
 1.582836604E+03	 1.851599976E+03
 1.583346480E+03	 1.854599976E+03
 1.583856301E+03	 1.850400024E+03
 1.584366067E+03	 1.856199951E+03
 1.584875779E+03	 1.839000000E+03
 1.585385437E+03	 1.866599976E+03
 1.585895039E+03	 1.867000000E+03
 1.586404587E+03	 1.851599976E+03
 1.586914081E+03	 1.860199951E+03
 1.587423520E+03	 1.866400024E+03
 1.587932904E+03	 1.858400024E+03
 1.588442234E+03	 1.869400024E+03
 1.588951509E+03	 1.849400024E+03
 1.589460730E+03	 1.861000000E+03
 1.589969896E+03	 1.854199951E+03
 1.590479007E+03	 1.876400024E+03
 1.590988064E+03	 1.870400024E+03
 1.591497067E+03	 1.864800049E+03
 1.592006015E+03	 1.858599976E+03
