 1.042057870E+03	 1.471333374E+03
 1.042624871E+03	 1.468666626E+03
 1.043191812E+03	 1.431000000E+03
 1.043758695E+03	 1.444666626E+03
 1.044325518E+03	 1.414666626E+03
 1.044892283E+03	 1.441333374E+03
 1.045458988E+03	 1.427333374E+03
 1.046025634E+03	 1.440666626E+03
 1.046592221E+03	 1.451333374E+03
 1.047158749E+03	 1.450333374E+03
 1.047725218E+03	 1.442000000E+03
 1.048291628E+03	 1.432333374E+03
 1.048857978E+03	 1.424333374E+03
 1.049424270E+03	 1.434000000E+03
 1.049990502E+03	 1.421000000E+03
 1.050556676E+03	 1.415333374E+03
 1.051122790E+03	 1.433666626E+03
 1.051688845E+03	 1.435000000E+03
 1.052254841E+03	 1.468666626E+03
 1.052820778E+03	 1.434000000E+03
 1.053386657E+03	 1.437000000E+03
 1.053952476E+03	 1.418333374E+03
 1.054518236E+03	 1.425666626E+03
 1.055083936E+03	 1.447333374E+03
 1.055649578E+03	 1.424000000E+03
 1.056215161E+03	 1.413666626E+03
 1.056780685E+03	 1.416000000E+03
 1.057346150E+03	 1.424000000E+03
 1.057911556E+03	 1.420000000E+03
 1.058476903E+03	 1.435666626E+03
 1.059042191E+03	 1.443333374E+03
 1.059607419E+03	 1.429333374E+03
 1.060172589E+03	 1.423000000E+03
 1.060737700E+03	 1.422333374E+03
 1.061302752E+03	 1.411000000E+03
 1.061867745E+03	 1.426666626E+03
 1.062432679E+03	 1.403333374E+03
 1.062997554E+03	 1.424000000E+03
 1.063562370E+03	 1.415000000E+03
 1.064127127E+03	 1.419333374E+03
 1.064691825E+03	 1.424666626E+03
 1.065256464E+03	 1.421333374E+03
 1.065821044E+03	 1.421666626E+03
 1.066385565E+03	 1.431333374E+03
 1.066950027E+03	 1.428333374E+03
 1.067514431E+03	 1.440666626E+03
 1.068078775E+03	 1.428333374E+03
 1.068643061E+03	 1.422666626E+03
 1.069207287E+03	 1.424333374E+03
 1.069771455E+03	 1.440666626E+03
 1.070335564E+03	 1.425000000E+03
 1.070899613E+03	 1.417000000E+03
 1.071463604E+03	 1.437666626E+03
 1.072027536E+03	 1.428000000E+03
 1.072591409E+03	 1.434666626E+03
 1.073155224E+03	 1.420666626E+03
 1.073718979E+03	 1.423333374E+03
 1.074282676E+03	 1.440000000E+03
 1.074846313E+03	 1.449000000E+03
 1.075409892E+03	 1.434000000E+03
 1.075973412E+03	 1.429000000E+03
 1.076536873E+03	 1.428666626E+03
 1.077100275E+03	 1.435333374E+03
 1.077663618E+03	 1.428000000E+03
 1.078226903E+03	 1.429666626E+03
 1.078790129E+03	 1.432000000E+03
 1.079353295E+03	 1.408666626E+03
 1.079916403E+03	 1.443333374E+03
 1.080479453E+03	 1.420333374E+03
 1.081042443E+03	 1.432666626E+03
 1.081605374E+03	 1.417333374E+03
 1.082168247E+03	 1.441000000E+03
 1.082731061E+03	 1.420333374E+03
 1.083293816E+03	 1.448666626E+03
 1.083856512E+03	 1.447666626E+03
 1.084419150E+03	 1.439000000E+03
 1.084981729E+03	 1.418666626E+03
 1.085544249E+03	 1.432666626E+03
 1.086106710E+03	 1.434666626E+03
 1.086669112E+03	 1.428333374E+03
 1.087231456E+03	 1.434000000E+03
 1.087793741E+03	 1.441666626E+03
 1.088355967E+03	 1.420000000E+03
 1.088918134E+03	 1.432666626E+03
 1.089480243E+03	 1.435666626E+03
 1.090042293E+03	 1.429000000E+03
 1.090604284E+03	 1.430333374E+03
 1.091166216E+03	 1.450666626E+03
 1.091728090E+03	 1.425333374E+03
 1.092289905E+03	 1.427333374E+03
 1.092851661E+03	 1.424666626E+03
 1.093413358E+03	 1.435333374E+03
 1.093974997E+03	 1.451666626E+03
 1.094536577E+03	 1.443666626E+03
 1.095098098E+03	 1.426333374E+03
 1.095659561E+03	 1.450333374E+03
 1.096220965E+03	 1.447666626E+03
 1.096782310E+03	 1.449333374E+03
 1.097343597E+03	 1.441000000E+03
 1.097904825E+03	 1.446333374E+03
 1.098465994E+03	 1.454333374E+03
 1.099027105E+03	 1.436666626E+03
 1.099588157E+03	 1.447333374E+03
 1.100149150E+03	 1.448000000E+03
 1.100710084E+03	 1.440000000E+03
 1.101270960E+03	 1.451666626E+03
 1.101831778E+03	 1.435000000E+03
 1.102392536E+03	 1.465333374E+03
 1.102953236E+03	 1.455666626E+03
 1.103513878E+03	 1.455666626E+03
 1.104074460E+03	 1.454666626E+03
 1.104634984E+03	 1.464000000E+03
 1.105195450E+03	 1.458666626E+03
 1.105755857E+03	 1.444333374E+03
 1.106316205E+03	 1.443666626E+03
 1.106876495E+03	 1.454333374E+03
 1.107436726E+03	 1.475666626E+03
 1.107996898E+03	 1.457666626E+03
 1.108557012E+03	 1.462000000E+03
 1.109117067E+03	 1.468666626E+03
 1.109677064E+03	 1.471333374E+03
 1.110237002E+03	 1.478666626E+03
 1.110796882E+03	 1.466000000E+03
 1.111356703E+03	 1.447666626E+03
 1.111916465E+03	 1.478333374E+03
 1.112476169E+03	 1.465666626E+03
 1.113035814E+03	 1.475000000E+03
 1.113595401E+03	 1.473000000E+03
 1.114154929E+03	 1.482333374E+03
 1.114714399E+03	 1.471000000E+03
 1.115273810E+03	 1.479333374E+03
 1.115833163E+03	 1.477333374E+03
 1.116392457E+03	 1.491333374E+03
 1.116951693E+03	 1.473666626E+03
 1.117510870E+03	 1.481333374E+03
 1.118069988E+03	 1.473000000E+03
 1.118629048E+03	 1.482666626E+03
 1.119188050E+03	 1.467666626E+03
 1.119746993E+03	 1.475333374E+03
 1.120305877E+03	 1.463666626E+03
 1.120864703E+03	 1.487333374E+03
 1.121423471E+03	 1.480000000E+03
 1.121982180E+03	 1.472666626E+03
 1.122540831E+03	 1.479333374E+03
 1.123099423E+03	 1.487333374E+03
 1.123657957E+03	 1.493000000E+03
 1.124216432E+03	 1.480000000E+03
 1.124774849E+03	 1.481000000E+03
 1.125333207E+03	 1.500666626E+03
 1.125891507E+03	 1.477333374E+03
 1.126449748E+03	 1.508333374E+03
 1.127007931E+03	 1.491000000E+03
 1.127566056E+03	 1.498333374E+03
 1.128124122E+03	 1.501333374E+03
 1.128682130E+03	 1.506333374E+03
 1.129240079E+03	 1.521666626E+03
 1.129797970E+03	 1.492333374E+03
 1.130355802E+03	 1.488000000E+03
 1.130913576E+03	 1.499333374E+03
 1.131471292E+03	 1.500000000E+03
 1.132028949E+03	 1.507333374E+03
 1.132586548E+03	 1.505000000E+03
 1.133144089E+03	 1.500666626E+03
 1.133701571E+03	 1.489666626E+03
 1.134258995E+03	 1.531333374E+03
 1.134816360E+03	 1.504666626E+03
 1.135373667E+03	 1.504666626E+03
 1.135930916E+03	 1.507333374E+03
 1.136488106E+03	 1.513333374E+03
 1.137045238E+03	 1.514333374E+03
 1.137602311E+03	 1.523333374E+03
 1.138159327E+03	 1.510333374E+03
 1.138716284E+03	 1.519666626E+03
 1.139273182E+03	 1.515333374E+03
 1.139830022E+03	 1.518666626E+03
 1.140386804E+03	 1.490333374E+03
 1.140943528E+03	 1.527666626E+03
 1.141500193E+03	 1.529000000E+03
 1.142056800E+03	 1.528000000E+03
 1.142613349E+03	 1.507666626E+03
 1.143169839E+03	 1.532000000E+03
 1.143726271E+03	 1.529666626E+03
 1.144282645E+03	 1.522666626E+03
 1.144838960E+03	 1.523666626E+03
 1.145395218E+03	 1.521666626E+03
 1.145951417E+03	 1.529000000E+03
 1.146507557E+03	 1.518666626E+03
 1.147063640E+03	 1.537000000E+03
 1.147619664E+03	 1.526000000E+03
 1.148175630E+03	 1.530000000E+03
 1.148731537E+03	 1.533666626E+03
 1.149287386E+03	 1.531333374E+03
 1.149843178E+03	 1.533000000E+03
 1.150398910E+03	 1.552000000E+03
 1.150954585E+03	 1.527333374E+03
 1.151510201E+03	 1.524666626E+03
 1.152065760E+03	 1.531333374E+03
 1.152621260E+03	 1.523000000E+03
 1.153176701E+03	 1.527666626E+03
 1.153732085E+03	 1.540333374E+03
 1.154287410E+03	 1.536666626E+03
 1.154842677E+03	 1.539000000E+03
 1.155397886E+03	 1.535666626E+03
 1.155953037E+03	 1.546000000E+03
 1.156508129E+03	 1.523666626E+03
 1.157063164E+03	 1.534666626E+03
 1.157618140E+03	 1.526333374E+03
 1.158173058E+03	 1.548000000E+03
 1.158727917E+03	 1.539000000E+03
 1.159282719E+03	 1.549000000E+03
 1.159837463E+03	 1.555000000E+03
 1.160392148E+03	 1.549666626E+03
 1.160946775E+03	 1.546000000E+03
 1.161501344E+03	 1.547333374E+03
 1.162055855E+03	 1.550666626E+03
 1.162610308E+03	 1.541666626E+03
 1.163164702E+03	 1.535000000E+03
 1.163719039E+03	 1.549666626E+03
 1.164273317E+03	 1.544333374E+03
 1.164827537E+03	 1.530000000E+03
 1.165381699E+03	 1.562333374E+03
 1.165935803E+03	 1.546000000E+03
 1.166489849E+03	 1.567000000E+03
 1.167043837E+03	 1.581333374E+03
 1.167597767E+03	 1.555333374E+03
 1.168151638E+03	 1.536333374E+03
 1.168705452E+03	 1.545666626E+03
 1.169259207E+03	 1.549000000E+03
 1.169812904E+03	 1.549000000E+03
 1.170366544E+03	 1.566666626E+03
 1.170920125E+03	 1.571666626E+03
 1.171473648E+03	 1.558333374E+03
 1.172027113E+03	 1.537333374E+03
 1.172580520E+03	 1.529333374E+03
 1.173133869E+03	 1.554000000E+03
 1.173687160E+03	 1.542666626E+03
 1.174240393E+03	 1.548000000E+03
 1.174793567E+03	 1.542333374E+03
 1.175346684E+03	 1.551000000E+03
 1.175899743E+03	 1.561666626E+03
 1.176452744E+03	 1.557000000E+03
 1.177005686E+03	 1.534333374E+03
 1.177558571E+03	 1.552000000E+03
 1.178111398E+03	 1.562000000E+03
 1.178664167E+03	 1.557333374E+03
 1.179216877E+03	 1.551000000E+03
 1.179769530E+03	 1.564333374E+03
 1.180322125E+03	 1.536333374E+03
 1.180874661E+03	 1.541666626E+03
 1.181427140E+03	 1.548333374E+03
 1.181979561E+03	 1.552666626E+03
 1.182531924E+03	 1.576666626E+03
 1.183084228E+03	 1.555333374E+03
 1.183636475E+03	 1.562333374E+03
 1.184188664E+03	 1.558666626E+03
 1.184740795E+03	 1.567000000E+03
 1.185292868E+03	 1.552333374E+03
 1.185844883E+03	 1.555333374E+03
 1.186396840E+03	 1.558666626E+03
 1.186948739E+03	 1.561333374E+03
 1.187500581E+03	 1.546666626E+03
 1.188052364E+03	 1.564333374E+03
 1.188604089E+03	 1.564333374E+03
 1.189155757E+03	 1.566333374E+03
 1.189707366E+03	 1.563000000E+03
 1.190258918E+03	 1.558666626E+03
 1.190810412E+03	 1.564333374E+03
 1.191361847E+03	 1.567666626E+03
 1.191913225E+03	 1.582000000E+03
 1.192464545E+03	 1.562000000E+03
 1.193015808E+03	 1.574000000E+03
 1.193567012E+03	 1.566333374E+03
 1.194118158E+03	 1.573000000E+03
 1.194669247E+03	 1.568666626E+03
 1.195220278E+03	 1.565333374E+03
 1.195771250E+03	 1.548000000E+03
 1.196322165E+03	 1.571666626E+03
 1.196873022E+03	 1.561000000E+03
 1.197423822E+03	 1.590666626E+03
 1.197974563E+03	 1.578666626E+03
 1.198525247E+03	 1.565000000E+03
 1.199075872E+03	 1.584666626E+03
 1.199626440E+03	 1.570000000E+03
 1.200176950E+03	 1.579333374E+03
 1.200727403E+03	 1.577333374E+03
 1.201277797E+03	 1.585333374E+03
 1.201828134E+03	 1.565666626E+03
 1.202378412E+03	 1.598333374E+03
 1.202928633E+03	 1.564000000E+03
 1.203478797E+03	 1.583000000E+03
 1.204028902E+03	 1.570333374E+03
 1.204578950E+03	 1.579000000E+03
 1.205128940E+03	 1.589666626E+03
 1.205678872E+03	 1.584333374E+03
 1.206228746E+03	 1.573000000E+03
 1.206778562E+03	 1.565000000E+03
 1.207328321E+03	 1.587333374E+03
 1.207878022E+03	 1.580000000E+03
 1.208427665E+03	 1.595000000E+03
 1.208977251E+03	 1.592666626E+03
 1.209526779E+03	 1.602000000E+03
 1.210076249E+03	 1.593666626E+03
 1.210625661E+03	 1.578666626E+03
 1.211175015E+03	 1.602666626E+03
 1.211724312E+03	 1.597666626E+03
 1.212273551E+03	 1.602000000E+03
 1.212822733E+03	 1.596000000E+03
 1.213371856E+03	 1.597333374E+03
 1.213920922E+03	 1.585666626E+03
 1.214469930E+03	 1.593000000E+03
 1.215018881E+03	 1.572333374E+03
 1.215567774E+03	 1.602000000E+03
 1.216116609E+03	 1.602333374E+03
 1.216665386E+03	 1.606000000E+03
 1.217214106E+03	 1.611333374E+03
 1.217762768E+03	 1.618333374E+03
 1.218311372E+03	 1.613333374E+03
 1.218859919E+03	 1.591666626E+03
 1.219408408E+03	 1.612333374E+03
 1.219956840E+03	 1.615666626E+03
 1.220505213E+03	 1.616666626E+03
 1.221053530E+03	 1.603333374E+03
 1.221601788E+03	 1.618333374E+03
 1.222149989E+03	 1.621000000E+03
 1.222698132E+03	 1.623333374E+03
 1.223246218E+03	 1.594666626E+03
 1.223794245E+03	 1.599000000E+03
 1.224342216E+03	 1.603333374E+03
 1.224890128E+03	 1.596666626E+03
 1.225437983E+03	 1.610333374E+03
 1.225985781E+03	 1.602000000E+03
 1.226533521E+03	 1.630666626E+03
 1.227081203E+03	 1.616000000E+03
 1.227628828E+03	 1.616666626E+03
 1.228176395E+03	 1.620333374E+03
 1.228723904E+03	 1.631666626E+03
 1.229271356E+03	 1.633333374E+03
 1.229818750E+03	 1.622333374E+03
 1.230366087E+03	 1.641000000E+03
 1.230913366E+03	 1.614333374E+03
 1.231460588E+03	 1.631666626E+03
 1.232007752E+03	 1.616666626E+03
 1.232554858E+03	 1.619000000E+03
 1.233101907E+03	 1.610666626E+03
 1.233648898E+03	 1.641666626E+03
 1.234195832E+03	 1.619666626E+03
 1.234742709E+03	 1.629333374E+03
 1.235289527E+03	 1.636666626E+03
 1.235836289E+03	 1.633666626E+03
 1.236382992E+03	 1.636666626E+03
 1.236929639E+03	 1.624000000E+03
 1.237476227E+03	 1.640000000E+03
 1.238022758E+03	 1.621333374E+03
 1.238569232E+03	 1.666333374E+03
 1.239115648E+03	 1.635666626E+03
 1.239662007E+03	 1.633333374E+03
 1.240208308E+03	 1.639666626E+03
 1.240754552E+03	 1.626000000E+03
 1.241300738E+03	 1.633333374E+03
 1.241846867E+03	 1.643000000E+03
 1.242392938E+03	 1.644000000E+03
 1.242938952E+03	 1.656000000E+03
 1.243484908E+03	 1.619666626E+03
 1.244030807E+03	 1.650333374E+03
 1.244576648E+03	 1.644333374E+03
 1.245122432E+03	 1.654333374E+03
 1.245668159E+03	 1.650666626E+03
 1.246213828E+03	 1.645000000E+03
 1.246759440E+03	 1.660666626E+03
 1.247304994E+03	 1.661000000E+03
 1.247850490E+03	 1.657666626E+03
 1.248395930E+03	 1.657333374E+03
 1.248941312E+03	 1.661333374E+03
 1.249486636E+03	 1.637000000E+03
 1.250031903E+03	 1.653000000E+03
 1.250577113E+03	 1.644666626E+03
 1.251122265E+03	 1.646666626E+03
 1.251667360E+03	 1.667333374E+03
 1.252212398E+03	 1.669666626E+03
 1.252757378E+03	 1.657000000E+03
 1.253302301E+03	 1.660000000E+03
 1.253847166E+03	 1.668666626E+03
 1.254391974E+03	 1.658333374E+03
 1.254936725E+03	 1.645666626E+03
 1.255481418E+03	 1.650333374E+03
 1.256026054E+03	 1.653666626E+03
 1.256570632E+03	 1.661333374E+03
 1.257115154E+03	 1.651333374E+03
 1.257659617E+03	 1.657333374E+03
 1.258204024E+03	 1.647000000E+03
 1.258748373E+03	 1.668000000E+03
 1.259292665E+03	 1.664666626E+03
 1.259836900E+03	 1.666666626E+03
 1.260381077E+03	 1.643333374E+03
 1.260925197E+03	 1.669666626E+03
 1.261469259E+03	 1.656666626E+03
 1.262013264E+03	 1.671000000E+03
 1.262557212E+03	 1.644333374E+03
 1.263101103E+03	 1.677666626E+03
 1.263644936E+03	 1.643333374E+03
 1.264188712E+03	 1.667333374E+03
 1.264732431E+03	 1.706333374E+03
 1.265276093E+03	 1.671333374E+03
 1.265819697E+03	 1.668666626E+03
 1.266363244E+03	 1.689666626E+03
 1.266906734E+03	 1.680666626E+03
 1.267450166E+03	 1.669333374E+03
 1.267993541E+03	 1.676666626E+03
 1.268536859E+03	 1.682333374E+03
 1.269080120E+03	 1.671000000E+03
 1.269623323E+03	 1.689333374E+03
 1.270166469E+03	 1.667666626E+03
 1.270709558E+03	 1.684666626E+03
 1.271252590E+03	 1.671333374E+03
 1.271795564E+03	 1.674333374E+03
 1.272338481E+03	 1.679333374E+03
 1.272881341E+03	 1.684333374E+03
 1.273424144E+03	 1.695000000E+03
 1.273966890E+03	 1.696000000E+03
 1.274509578E+03	 1.684000000E+03
 1.275052209E+03	 1.698666626E+03
 1.275594783E+03	 1.671000000E+03
 1.276137300E+03	 1.686333374E+03
 1.276679760E+03	 1.682000000E+03
 1.277222162E+03	 1.688666626E+03
 1.277764507E+03	 1.697666626E+03
 1.278306796E+03	 1.679333374E+03
 1.278849026E+03	 1.699333374E+03
 1.279391200E+03	 1.693000000E+03
 1.279933317E+03	 1.683000000E+03
 1.280475376E+03	 1.686666626E+03
 1.281017378E+03	 1.677333374E+03
 1.281559324E+03	 1.704000000E+03
 1.282101212E+03	 1.671666626E+03
 1.282643042E+03	 1.678666626E+03
 1.283184816E+03	 1.698000000E+03
 1.283726533E+03	 1.712666626E+03
 1.284268192E+03	 1.679333374E+03
 1.284809795E+03	 1.704333374E+03
 1.285351340E+03	 1.710333374E+03
 1.285892828E+03	 1.706333374E+03
 1.286434259E+03	 1.704666626E+03
 1.286975633E+03	 1.699000000E+03
 1.287516950E+03	 1.705666626E+03
 1.288058209E+03	 1.704333374E+03
 1.288599412E+03	 1.721000000E+03
 1.289140558E+03	 1.717000000E+03
 1.289681646E+03	 1.714000000E+03
 1.290222677E+03	 1.719666626E+03
 1.290763652E+03	 1.703666626E+03
 1.291304569E+03	 1.721000000E+03
 1.291845429E+03	 1.699000000E+03
 1.292386232E+03	 1.704666626E+03
 1.292926979E+03	 1.707000000E+03
 1.293467668E+03	 1.726000000E+03
 1.294008300E+03	 1.684666626E+03
 1.294548875E+03	 1.715333374E+03
 1.295089392E+03	 1.720000000E+03
 1.295629853E+03	 1.722666626E+03
 1.296170257E+03	 1.699333374E+03
 1.296710604E+03	 1.708000000E+03
 1.297250894E+03	 1.730333374E+03
 1.297791127E+03	 1.719666626E+03
 1.298331303E+03	 1.735333374E+03
 1.298871422E+03	 1.705000000E+03
 1.299411483E+03	 1.716000000E+03
 1.299951488E+03	 1.735666626E+03
 1.300491436E+03	 1.712000000E+03
 1.301031327E+03	 1.712666626E+03
 1.301571161E+03	 1.722000000E+03
 1.302110938E+03	 1.714333374E+03
 1.302650658E+03	 1.719333374E+03
 1.303190321E+03	 1.723000000E+03
 1.303729927E+03	 1.733000000E+03
 1.304269476E+03	 1.736333374E+03
 1.304808968E+03	 1.731000000E+03
 1.305348403E+03	 1.738666626E+03
 1.305887781E+03	 1.721666626E+03
 1.306427102E+03	 1.724666626E+03
 1.306966367E+03	 1.751666626E+03
 1.307505574E+03	 1.753000000E+03
 1.308044725E+03	 1.737333374E+03
 1.308583818E+03	 1.747666626E+03
 1.309122855E+03	 1.761000000E+03
 1.309661835E+03	 1.725333374E+03
 1.310200757E+03	 1.738333374E+03
 1.310739623E+03	 1.723666626E+03
 1.311278432E+03	 1.747666626E+03
 1.311817185E+03	 1.746666626E+03
 1.312355880E+03	 1.737666626E+03
 1.312894518E+03	 1.720666626E+03
 1.313433100E+03	 1.743333374E+03
 1.313971624E+03	 1.768333374E+03
 1.314510092E+03	 1.741333374E+03
 1.315048503E+03	 1.731333374E+03
 1.315586857E+03	 1.754000000E+03
 1.316125154E+03	 1.724000000E+03
 1.316663394E+03	 1.746000000E+03
 1.317201578E+03	 1.770666626E+03
 1.317739704E+03	 1.739333374E+03
 1.318277774E+03	 1.762333374E+03
 1.318815787E+03	 1.756333374E+03
 1.319353743E+03	 1.747333374E+03
 1.319891642E+03	 1.768666626E+03
 1.320429485E+03	 1.754000000E+03
 1.320967270E+03	 1.752666626E+03
 1.321504999E+03	 1.758333374E+03
 1.322042671E+03	 1.764333374E+03
 1.322580286E+03	 1.750333374E+03
 1.323117845E+03	 1.745666626E+03
 1.323655346E+03	 1.755666626E+03
 1.324192791E+03	 1.772666626E+03
 1.324730179E+03	 1.762000000E+03
 1.325267511E+03	 1.767000000E+03
 1.325804785E+03	 1.757333374E+03
 1.326342003E+03	 1.778000000E+03
 1.326879164E+03	 1.767000000E+03
 1.327416268E+03	 1.767333374E+03
 1.327953315E+03	 1.774333374E+03
 1.328490306E+03	 1.771666626E+03
 1.329027240E+03	 1.754000000E+03
 1.329564117E+03	 1.783000000E+03
 1.330100937E+03	 1.756000000E+03
 1.330637701E+03	 1.779666626E+03
 1.331174408E+03	 1.767000000E+03
 1.331711058E+03	 1.784666626E+03
 1.332247652E+03	 1.764333374E+03
 1.332784188E+03	 1.782000000E+03
 1.333320668E+03	 1.780000000E+03
 1.333857092E+03	 1.765333374E+03
 1.334393458E+03	 1.787333374E+03
 1.334929768E+03	 1.773333374E+03
 1.335466022E+03	 1.777000000E+03
 1.336002218E+03	 1.793000000E+03
 1.336538358E+03	 1.770333374E+03
 1.337074441E+03	 1.783000000E+03
 1.337610468E+03	 1.771666626E+03
 1.338146438E+03	 1.801333374E+03
 1.338682351E+03	 1.780666626E+03
 1.339218207E+03	 1.770333374E+03
 1.339754007E+03	 1.799666626E+03
 1.340289750E+03	 1.773333374E+03
 1.340825437E+03	 1.796000000E+03
 1.341361067E+03	 1.787333374E+03
 1.341896640E+03	 1.827666626E+03
 1.342432156E+03	 1.773333374E+03
 1.342967616E+03	 1.776333374E+03
 1.343503020E+03	 1.793000000E+03
 1.344038366E+03	 1.792666626E+03
 1.344573657E+03	 1.988666626E+03
 1.345108890E+03	 2.187666748E+03
 1.345644067E+03	 2.393333252E+03
 1.346179187E+03	 2.021333374E+03
 1.346714251E+03	 1.798333374E+03
 1.347249258E+03	 1.798000000E+03
 1.347784208E+03	 1.791666626E+03
 1.348319102E+03	 1.775333374E+03
 1.348853939E+03	 1.781000000E+03
 1.349388720E+03	 1.794000000E+03
 1.349923444E+03	 1.806000000E+03
 1.350458112E+03	 1.828333374E+03
 1.350992723E+03	 1.793333374E+03
 1.351527277E+03	 1.782000000E+03
 1.352061775E+03	 1.791333374E+03
 1.352596216E+03	 1.803666626E+03
 1.353130601E+03	 1.796666626E+03
 1.353664929E+03	 1.807000000E+03
 1.354199201E+03	 1.779000000E+03
 1.354733416E+03	 1.813000000E+03
 1.355267575E+03	 1.799333374E+03
 1.355801677E+03	 1.788333374E+03
 1.356335722E+03	 1.793000000E+03
 1.356869711E+03	 1.812333374E+03
 1.357403644E+03	 1.816666626E+03
 1.357937520E+03	 1.801666626E+03
 1.358471340E+03	 1.782000000E+03
 1.359005103E+03	 1.797000000E+03
 1.359538809E+03	 1.794666626E+03
 1.360072459E+03	 1.821333374E+03
 1.360606053E+03	 1.799000000E+03
 1.361139590E+03	 1.787666626E+03
 1.361673070E+03	 1.803666626E+03
 1.362206494E+03	 1.820000000E+03
 1.362739862E+03	 1.831666626E+03
 1.363273173E+03	 1.803000000E+03
 1.363806428E+03	 1.818000000E+03
 1.364339626E+03	 1.813000000E+03
 1.364872768E+03	 1.813333374E+03
 1.365405853E+03	 1.801333374E+03
 1.365938882E+03	 1.800666626E+03
 1.366471855E+03	 1.814666626E+03
 1.367004771E+03	 1.831333374E+03
 1.367537630E+03	 1.807333374E+03
 1.368070434E+03	 1.801666626E+03
 1.368603180E+03	 1.829666626E+03
 1.369135871E+03	 1.813333374E+03
 1.369668505E+03	 1.810333374E+03
 1.370201082E+03	 1.811666626E+03
 1.370733603E+03	 1.829666626E+03
 1.371266068E+03	 1.826333374E+03
 1.371798476E+03	 1.810333374E+03
 1.372330828E+03	 1.818333374E+03
 1.372863124E+03	 1.837000000E+03
 1.373395363E+03	 1.818666626E+03
 1.373927546E+03	 1.825666626E+03
 1.374459672E+03	 1.809666626E+03
 1.374991743E+03	 1.812333374E+03
 1.375523756E+03	 1.828666626E+03
 1.376055714E+03	 1.836333374E+03
 1.376587615E+03	 1.815333374E+03
 1.377119459E+03	 1.814666626E+03
 1.377651248E+03	 1.843333374E+03
 1.378182980E+03	 1.843333374E+03
 1.378714655E+03	 1.827666626E+03
 1.379246274E+03	 1.803333374E+03
 1.379777837E+03	 1.838333374E+03
 1.380309344E+03	 1.835333374E+03
 1.380840794E+03	 1.837000000E+03
 1.381372188E+03	 1.820666626E+03
 1.381903526E+03	 1.816000000E+03
 1.382434808E+03	 1.862333374E+03
 1.382966033E+03	 1.834000000E+03
 1.383497201E+03	 1.840333374E+03
 1.384028314E+03	 1.851666626E+03
 1.384559370E+03	 1.839333374E+03
 1.385090370E+03	 1.844000000E+03
 1.385621314E+03	 1.831666626E+03
 1.386152201E+03	 1.850000000E+03
 1.386683032E+03	 1.852333374E+03
 1.387213807E+03	 1.847666626E+03
 1.387744526E+03	 1.854333374E+03
 1.388275188E+03	 1.863000000E+03
 1.388805794E+03	 1.857333374E+03
 1.389336344E+03	 1.863333374E+03
 1.389866838E+03	 1.852666626E+03
 1.390397275E+03	 1.832333374E+03
 1.390927656E+03	 1.864333374E+03
 1.391457981E+03	 1.852666626E+03
 1.391988250E+03	 1.858000000E+03
 1.392518462E+03	 1.866666626E+03
 1.393048619E+03	 1.869333374E+03
 1.393578719E+03	 1.860333374E+03
 1.394108762E+03	 1.873000000E+03
 1.394638750E+03	 1.863000000E+03
 1.395168682E+03	 1.860666626E+03
 1.395698557E+03	 1.874000000E+03
 1.396228376E+03	 1.863333374E+03
 1.396758139E+03	 1.856000000E+03
 1.397287845E+03	 1.857666626E+03
 1.397817496E+03	 1.860333374E+03
 1.398347090E+03	 1.890000000E+03
 1.398876628E+03	 1.855333374E+03
 1.399406110E+03	 1.856333374E+03
 1.399935536E+03	 1.867000000E+03
 1.400464906E+03	 1.885000000E+03
 1.400994219E+03	 1.847000000E+03
 1.401523477E+03	 1.868000000E+03
 1.402052678E+03	 1.855333374E+03
 1.402581823E+03	 1.883666626E+03
 1.403110912E+03	 1.882000000E+03
 1.403639945E+03	 1.890666626E+03
 1.404168922E+03	 1.873333374E+03
 1.404697842E+03	 1.888000000E+03
 1.405226707E+03	 1.909000000E+03
 1.405755515E+03	 1.886000000E+03
 1.406284267E+03	 1.866333374E+03
 1.406812964E+03	 1.877666626E+03
 1.407341604E+03	 1.887666626E+03
 1.407870188E+03	 1.895666626E+03
 1.408398716E+03	 1.903666626E+03
 1.408927187E+03	 1.900333374E+03
 1.409455603E+03	 1.912333374E+03
 1.409983963E+03	 1.892000000E+03
 1.410512266E+03	 1.905000000E+03
 1.411040514E+03	 1.901666626E+03
 1.411568705E+03	 1.891666626E+03
 1.412096841E+03	 1.897666626E+03
 1.412624920E+03	 1.886666626E+03
 1.413152944E+03	 1.897333374E+03
 1.413680911E+03	 1.920666626E+03
 1.414208822E+03	 1.922666626E+03
 1.414736677E+03	 1.910333374E+03
 1.415264476E+03	 1.895666626E+03
 1.415792220E+03	 1.901333374E+03
 1.416319907E+03	 1.925000000E+03
 1.416847538E+03	 1.896666626E+03
 1.417375113E+03	 1.894000000E+03
 1.417902632E+03	 1.910333374E+03
 1.418430095E+03	 1.912333374E+03
 1.418957502E+03	 1.907000000E+03
 1.419484853E+03	 1.920000000E+03
 1.420012148E+03	 1.903666626E+03
 1.420539387E+03	 1.917000000E+03
 1.421066570E+03	 1.926000000E+03
 1.421593698E+03	 1.900666626E+03
 1.422120769E+03	 1.910000000E+03
 1.422647784E+03	 1.923000000E+03
 1.423174743E+03	 1.930666626E+03
 1.423701647E+03	 1.902333374E+03
 1.424228494E+03	 1.920000000E+03
 1.424755285E+03	 1.928000000E+03
 1.425282021E+03	 1.924000000E+03
 1.425808700E+03	 1.911333374E+03
 1.426335324E+03	 1.908333374E+03
 1.426861891E+03	 1.926666626E+03
 1.427388403E+03	 1.926333374E+03
 1.427914859E+03	 1.902333374E+03
 1.428441259E+03	 1.952666626E+03
 1.428967602E+03	 1.930333374E+03
 1.429493890E+03	 1.941000000E+03
 1.430020123E+03	 1.926333374E+03
 1.430546299E+03	 1.917000000E+03
 1.431072419E+03	 1.937333374E+03
 1.431598483E+03	 1.919333374E+03
 1.432124492E+03	 1.942333374E+03
 1.432650445E+03	 1.953333374E+03
 1.433176341E+03	 1.944000000E+03
 1.433702182E+03	 1.955333374E+03
 1.434227967E+03	 1.912333374E+03
 1.434753696E+03	 1.954000000E+03
 1.435279370E+03	 1.953333374E+03
 1.435804987E+03	 1.952666626E+03
 1.436330549E+03	 1.945000000E+03
 1.436856054E+03	 1.952333374E+03
 1.437381504E+03	 1.947666626E+03
 1.437906898E+03	 1.939666626E+03
 1.438432236E+03	 1.970000000E+03
 1.438957519E+03	 1.946333374E+03
 1.439482745E+03	 1.930000000E+03
 1.440007916E+03	 1.975333374E+03
 1.440533031E+03	 1.972666626E+03
 1.441058090E+03	 1.949000000E+03
 1.441583093E+03	 1.988333374E+03
 1.442108041E+03	 1.946333374E+03
 1.442632932E+03	 1.969666626E+03
 1.443157768E+03	 1.973666626E+03
 1.443682548E+03	 1.957000000E+03
 1.444207272E+03	 1.955000000E+03
 1.444731941E+03	 1.956000000E+03
 1.445256554E+03	 1.962666626E+03
 1.445781111E+03	 1.963000000E+03
 1.446305612E+03	 1.968333374E+03
 1.446830057E+03	 1.975000000E+03
 1.447354447E+03	 1.965333374E+03
 1.447878781E+03	 1.973000000E+03
 1.448403059E+03	 1.948666626E+03
 1.448927281E+03	 1.972000000E+03
 1.449451448E+03	 1.972333374E+03
 1.449975559E+03	 1.977000000E+03
 1.450499614E+03	 1.966000000E+03
 1.451023613E+03	 1.983000000E+03
 1.451547557E+03	 1.964333374E+03
 1.452071445E+03	 1.982333374E+03
 1.452595277E+03	 1.971333374E+03
 1.453119054E+03	 1.968000000E+03
 1.453642774E+03	 1.984000000E+03
 1.454166440E+03	 1.984666626E+03
 1.454690049E+03	 1.960333374E+03
 1.455213603E+03	 2.009333374E+03
 1.455737101E+03	 2.001333374E+03
 1.456260543E+03	 1.981666626E+03
 1.456783930E+03	 1.976666626E+03
 1.457307261E+03	 1.975666626E+03
 1.457830536E+03	 1.968000000E+03
 1.458353756E+03	 1.982000000E+03
 1.458876920E+03	 1.968333374E+03
 1.459400028E+03	 1.982333374E+03
 1.459923081E+03	 1.998333374E+03
 1.460446078E+03	 1.985333374E+03
 1.460969019E+03	 1.977666626E+03
 1.461491905E+03	 1.982666626E+03
 1.462014735E+03	 1.996000000E+03
 1.462537509E+03	 2.004333374E+03
 1.463060228E+03	 1.990000000E+03
 1.463582891E+03	 1.983666626E+03
 1.464105499E+03	 1.981333374E+03
 1.464628051E+03	 2.006666626E+03
 1.465150547E+03	 2.001000000E+03
 1.465672988E+03	 2.014666626E+03
 1.466195373E+03	 1.999333374E+03
 1.466717702E+03	 1.986000000E+03
 1.467239976E+03	 1.996000000E+03
 1.467762195E+03	 2.028666626E+03
 1.468284357E+03	 1.982666626E+03
 1.468806464E+03	 2.013333374E+03
 1.469328516E+03	 2.003333374E+03
 1.469850512E+03	 1.995666626E+03
 1.470372452E+03	 2.011666626E+03
 1.470894337E+03	 2.000666626E+03
 1.471416167E+03	 2.001000000E+03
 1.471937940E+03	 1.991666626E+03
 1.472459659E+03	 2.005666626E+03
 1.472981321E+03	 2.021000000E+03
 1.473502928E+03	 2.013000000E+03
 1.474024480E+03	 2.036333374E+03
 1.474545976E+03	 2.025333374E+03
 1.475067416E+03	 2.009000000E+03
 1.475588801E+03	 2.025333374E+03
 1.476110131E+03	 1.994000000E+03
 1.476631405E+03	 2.010666626E+03
 1.477152623E+03	 2.016666626E+03
 1.477673786E+03	 1.995000000E+03
 1.478194894E+03	 2.029000000E+03
 1.478715946E+03	 2.012666626E+03
 1.479236942E+03	 2.000666626E+03
 1.479757883E+03	 2.022333374E+03
 1.480278768E+03	 2.033666626E+03
 1.480799598E+03	 2.029333374E+03
 1.481320373E+03	 2.031000000E+03
 1.481841092E+03	 2.012666626E+03
 1.482361755E+03	 2.042000000E+03
 1.482882363E+03	 2.030333374E+03
 1.483402916E+03	 2.016333374E+03
 1.483923413E+03	 2.028333374E+03
 1.484443855E+03	 2.037000000E+03
 1.484964241E+03	 2.025000000E+03
 1.485484572E+03	 2.031000000E+03
 1.486004847E+03	 2.049000000E+03
 1.486525067E+03	 2.028333374E+03
 1.487045232E+03	 2.028000000E+03
 1.487565341E+03	 2.047666626E+03
 1.488085395E+03	 2.019666626E+03
 1.488605393E+03	 2.030666626E+03
 1.489125336E+03	 2.035000000E+03
 1.489645223E+03	 2.030333374E+03
 1.490165055E+03	 2.059000000E+03
 1.490684832E+03	 2.054333252E+03
 1.491204553E+03	 2.044000000E+03
 1.491724219E+03	 2.034666626E+03
 1.492243829E+03	 2.055333252E+03
 1.492763385E+03	 2.044333374E+03
 1.493282884E+03	 2.033000000E+03
 1.493802329E+03	 2.036000000E+03
 1.494321718E+03	 2.049666748E+03
 1.494841051E+03	 2.058666748E+03
 1.495360329E+03	 2.056000000E+03
 1.495879552E+03	 2.062666748E+03
 1.496398720E+03	 2.044666626E+03
 1.496917832E+03	 2.040000000E+03
 1.497436889E+03	 2.045333374E+03
 1.497955890E+03	 2.057000000E+03
 1.498474837E+03	 2.041666626E+03
 1.498993727E+03	 2.053666748E+03
 1.499512563E+03	 2.056666748E+03
 1.500031343E+03	 2.057666748E+03
 1.500550068E+03	 2.066333252E+03
 1.501068738E+03	 2.047000000E+03
 1.501587352E+03	 2.068000000E+03
 1.502105911E+03	 2.075000000E+03
 1.502624414E+03	 2.022333374E+03
 1.503142863E+03	 2.056333252E+03
 1.503661256E+03	 2.059000000E+03
 1.504179594E+03	 2.063333252E+03
 1.504697876E+03	 2.061333252E+03
 1.505216103E+03	 2.075333252E+03
 1.505734275E+03	 2.061000000E+03
 1.506252392E+03	 2.038666626E+03
 1.506770454E+03	 2.086666748E+03
 1.507288460E+03	 2.046666626E+03
 1.507806411E+03	 2.091666748E+03
 1.508324306E+03	 2.053666748E+03
 1.508842147E+03	 2.079000000E+03
 1.509359932E+03	 2.056666748E+03
 1.509877662E+03	 2.088666748E+03
 1.510395337E+03	 2.075333252E+03
 1.510912956E+03	 2.065666748E+03
 1.511430520E+03	 2.066666748E+03
 1.511948029E+03	 2.071666748E+03
 1.512465483E+03	 2.054333252E+03
 1.512982882E+03	 2.071000000E+03
 1.513500225E+03	 2.083333252E+03
 1.514017513E+03	 2.078000000E+03
 1.514534746E+03	 2.101333252E+03
 1.515051924E+03	 2.072333252E+03
 1.515569047E+03	 2.081333252E+03
 1.516086114E+03	 2.086333252E+03
 1.516603126E+03	 2.082333252E+03
 1.517120084E+03	 2.063000000E+03
 1.517636985E+03	 2.094666748E+03
 1.518153832E+03	 2.079333252E+03
 1.518670624E+03	 2.088666748E+03
 1.519187360E+03	 2.082333252E+03
 1.519704041E+03	 2.101000000E+03
 1.520220667E+03	 2.101000000E+03
 1.520737238E+03	 2.072333252E+03
 1.521253754E+03	 2.081333252E+03
 1.521770215E+03	 2.089333252E+03
 1.522286620E+03	 2.086000000E+03
 1.522802971E+03	 2.079000000E+03
 1.523319266E+03	 2.081666748E+03
 1.523835506E+03	 2.113666748E+03
 1.524351691E+03	 2.095000000E+03
 1.524867821E+03	 2.090000000E+03
 1.525383896E+03	 2.062333252E+03
 1.525899916E+03	 2.094666748E+03
 1.526415881E+03	 2.082333252E+03
 1.526931790E+03	 2.112333252E+03
 1.527447645E+03	 2.086000000E+03
 1.527963444E+03	 2.113333252E+03
 1.528479188E+03	 2.080666748E+03
 1.528994877E+03	 2.116000000E+03
 1.529510512E+03	 2.088333252E+03
 1.530026091E+03	 2.106666748E+03
 1.530541615E+03	 2.094666748E+03
 1.531057084E+03	 2.113333252E+03
 1.531572497E+03	 2.116000000E+03
 1.532087856E+03	 2.095000000E+03
 1.532603160E+03	 2.090000000E+03
 1.533118409E+03	 2.111000000E+03
 1.533633603E+03	 2.078666748E+03
 1.534148741E+03	 2.096666748E+03
 1.534663825E+03	 2.123000000E+03
 1.535178853E+03	 2.096000000E+03
 1.535693827E+03	 2.091333252E+03
 1.536208746E+03	 2.102000000E+03
 1.536723609E+03	 2.098000000E+03
 1.537238418E+03	 2.088333252E+03
 1.537753171E+03	 2.092666748E+03
 1.538267870E+03	 2.097000000E+03
 1.538782514E+03	 2.098666748E+03
 1.539297102E+03	 2.108666748E+03
 1.539811636E+03	 2.097333252E+03
 1.540326114E+03	 2.096333252E+03
 1.540840538E+03	 2.099666748E+03
 1.541354907E+03	 2.131000000E+03
 1.541869220E+03	 2.101666748E+03
 1.542383479E+03	 2.098333252E+03
 1.542897683E+03	 2.099333252E+03
 1.543411832E+03	 2.106000000E+03
 1.543925926E+03	 2.095000000E+03
 1.544439964E+03	 2.140000000E+03
 1.544953948E+03	 2.129333252E+03
 1.545467877E+03	 2.112333252E+03
 1.545981752E+03	 2.116666748E+03
 1.546495571E+03	 2.154000000E+03
 1.547009335E+03	 2.127666748E+03
 1.547523044E+03	 2.116333252E+03
 1.548036699E+03	 2.130333252E+03
 1.548550298E+03	 2.153333252E+03
 1.549063843E+03	 2.112000000E+03
 1.549577333E+03	 2.148666748E+03
 1.550090767E+03	 2.138000000E+03
 1.550604147E+03	 2.138000000E+03
 1.551117472E+03	 2.132666748E+03
 1.551630742E+03	 2.125000000E+03
 1.552143958E+03	 2.143000000E+03
 1.552657118E+03	 2.145333252E+03
 1.553170224E+03	 2.126333252E+03
 1.553683274E+03	 2.139333252E+03
 1.554196270E+03	 2.113000000E+03
 1.554709211E+03	 2.151333252E+03
 1.555222097E+03	 2.141666748E+03
 1.555734928E+03	 2.120000000E+03
 1.556247705E+03	 2.127666748E+03
 1.556760426E+03	 2.134333252E+03
 1.557273093E+03	 2.145000000E+03
 1.557785705E+03	 2.143666748E+03
 1.558298262E+03	 2.150333252E+03
 1.558810764E+03	 2.121666748E+03
 1.559323211E+03	 2.124000000E+03
 1.559835604E+03	 2.146000000E+03
 1.560347941E+03	 2.165333252E+03
 1.560860224E+03	 2.150666748E+03
 1.561372452E+03	 2.150000000E+03
 1.561884626E+03	 2.148333252E+03
 1.562396744E+03	 2.171666748E+03
 1.562908808E+03	 2.139666748E+03
 1.563420817E+03	 2.153000000E+03
 1.563932771E+03	 2.170666748E+03
 1.564444671E+03	 2.152333252E+03
 1.564956515E+03	 2.187000000E+03
 1.565468305E+03	 2.176000000E+03
 1.565980040E+03	 2.157000000E+03
 1.566491721E+03	 2.153000000E+03
 1.567003346E+03	 2.154333252E+03
 1.567514917E+03	 2.176666748E+03
 1.568026433E+03	 2.160000000E+03
 1.568537894E+03	 2.177666748E+03
 1.569049301E+03	 2.167333252E+03
 1.569560653E+03	 2.186666748E+03
 1.570071950E+03	 2.185000000E+03
 1.570583192E+03	 2.167333252E+03
 1.571094380E+03	 2.195666748E+03
 1.571605513E+03	 2.187666748E+03
 1.572116591E+03	 2.197333252E+03
 1.572627615E+03	 2.171333252E+03
 1.573138584E+03	 2.172666748E+03
 1.573649498E+03	 2.205333252E+03
 1.574160357E+03	 2.177666748E+03
 1.574671162E+03	 2.174000000E+03
 1.575181912E+03	 2.203333252E+03
 1.575692608E+03	 2.180333252E+03
 1.576203248E+03	 2.181333252E+03
 1.576713834E+03	 2.218666748E+03
 1.577224366E+03	 2.190666748E+03
 1.577734843E+03	 2.199333252E+03
 1.578245265E+03	 2.198000000E+03
 1.578755632E+03	 2.215666748E+03
 1.579265945E+03	 2.201666748E+03
 1.579776203E+03	 2.210333252E+03
 1.580286406E+03	 2.200000000E+03
 1.580796555E+03	 2.199000000E+03
 1.581306649E+03	 2.208000000E+03
 1.581816689E+03	 2.226666748E+03
 1.582326674E+03	 2.239333252E+03
 1.582836604E+03	 2.240000000E+03
 1.583346480E+03	 2.209333252E+03
 1.583856301E+03	 2.223000000E+03
 1.584366067E+03	 2.187333252E+03
 1.584875779E+03	 2.207000000E+03
 1.585385437E+03	 2.196666748E+03
 1.585895039E+03	 2.207000000E+03
 1.586404587E+03	 2.232666748E+03
 1.586914081E+03	 2.236000000E+03
 1.587423520E+03	 2.240666748E+03
 1.587932904E+03	 2.226000000E+03
 1.588442234E+03	 2.205333252E+03
 1.588951509E+03	 2.240666748E+03
 1.589460730E+03	 2.230333252E+03
 1.589969896E+03	 2.215000000E+03
 1.590479007E+03	 2.234666748E+03
 1.590988064E+03	 2.212333252E+03
 1.591497067E+03	 2.221333252E+03
 1.592006015E+03	 2.204666748E+03
