 1.042057870E+03	 2.968600098E+03
 1.042624871E+03	 2.984600098E+03
 1.043191812E+03	 3.029399902E+03
 1.043758695E+03	 2.986800049E+03
 1.044325518E+03	 2.982800049E+03
 1.044892283E+03	 2.991399902E+03
 1.045458988E+03	 2.979199951E+03
 1.046025634E+03	 2.998199951E+03
 1.046592221E+03	 2.993800049E+03
 1.047158749E+03	 2.995800049E+03
 1.047725218E+03	 3.006600098E+03
 1.048291628E+03	 2.977000000E+03
 1.048857978E+03	 3.008800049E+03
 1.049424270E+03	 3.014399902E+03
 1.049990502E+03	 2.985600098E+03
 1.050556676E+03	 3.020199951E+03
 1.051122790E+03	 2.999199951E+03
 1.051688845E+03	 3.018800049E+03
 1.052254841E+03	 3.033800049E+03
 1.052820778E+03	 3.021000000E+03
 1.053386657E+03	 2.992600098E+03
 1.053952476E+03	 3.017600098E+03
 1.054518236E+03	 3.008000000E+03
 1.055083936E+03	 3.060399902E+03
 1.055649578E+03	 3.033399902E+03
 1.056215161E+03	 3.039800049E+03
 1.056780685E+03	 3.029399902E+03
 1.057346150E+03	 3.035399902E+03
 1.057911556E+03	 3.041800049E+03
 1.058476903E+03	 3.052199951E+03
 1.059042191E+03	 3.034000000E+03
 1.059607419E+03	 3.043800049E+03
 1.060172589E+03	 3.028800049E+03
 1.060737700E+03	 3.060399902E+03
 1.061302752E+03	 3.065199951E+03
 1.061867745E+03	 3.056399902E+03
 1.062432679E+03	 3.056399902E+03
 1.062997554E+03	 3.079600098E+03
 1.063562370E+03	 3.041000000E+03
 1.064127127E+03	 3.052600098E+03
 1.064691825E+03	 3.081000000E+03
 1.065256464E+03	 3.081800049E+03
 1.065821044E+03	 3.059800049E+03
 1.066385565E+03	 3.087399902E+03
 1.066950027E+03	 3.072000000E+03
 1.067514431E+03	 3.092399902E+03
 1.068078775E+03	 3.081600098E+03
 1.068643061E+03	 3.085600098E+03
 1.069207287E+03	 3.090000000E+03
 1.069771455E+03	 3.111800049E+03
 1.070335564E+03	 3.085199951E+03
 1.070899613E+03	 3.123399902E+03
 1.071463604E+03	 3.120600098E+03
 1.072027536E+03	 3.134399902E+03
 1.072591409E+03	 3.110800049E+03
 1.073155224E+03	 3.140199951E+03
 1.073718979E+03	 3.089399902E+03
 1.074282676E+03	 3.127199951E+03
 1.074846313E+03	 3.135199951E+03
 1.075409892E+03	 3.107800049E+03
 1.075973412E+03	 3.125399902E+03
 1.076536873E+03	 3.175199951E+03
 1.077100275E+03	 3.135199951E+03
 1.077663618E+03	 3.158600098E+03
 1.078226903E+03	 3.144199951E+03
 1.078790129E+03	 3.143600098E+03
 1.079353295E+03	 3.134000000E+03
 1.079916403E+03	 3.136600098E+03
 1.080479453E+03	 3.159000000E+03
 1.081042443E+03	 3.157199951E+03
 1.081605374E+03	 3.167399902E+03
 1.082168247E+03	 3.170399902E+03
 1.082731061E+03	 3.179800049E+03
 1.083293816E+03	 3.132399902E+03
 1.083856512E+03	 3.160399902E+03
 1.084419150E+03	 3.178399902E+03
 1.084981729E+03	 3.147600098E+03
 1.085544249E+03	 3.179000000E+03
 1.086106710E+03	 3.165399902E+03
 1.086669112E+03	 3.195600098E+03
 1.087231456E+03	 3.185800049E+03
 1.087793741E+03	 3.190800049E+03
 1.088355967E+03	 3.167600098E+03
 1.088918134E+03	 3.186000000E+03
 1.089480243E+03	 3.185800049E+03
 1.090042293E+03	 3.205000000E+03
 1.090604284E+03	 3.294000000E+03
 1.091166216E+03	 3.220399902E+03
 1.091728090E+03	 3.200800049E+03
 1.092289905E+03	 3.219600098E+03
 1.092851661E+03	 3.218600098E+03
 1.093413358E+03	 3.208399902E+03
 1.093974997E+03	 3.218600098E+03
 1.094536577E+03	 3.225199951E+03
 1.095098098E+03	 3.246199951E+03
 1.095659561E+03	 3.232399902E+03
 1.096220965E+03	 3.238600098E+03
 1.096782310E+03	 3.231000000E+03
 1.097343597E+03	 3.245600098E+03
 1.097904825E+03	 3.237800049E+03
 1.098465994E+03	 3.238000000E+03
 1.099027105E+03	 3.249399902E+03
 1.099588157E+03	 3.267199951E+03
 1.100149150E+03	 3.275600098E+03
 1.100710084E+03	 3.280000000E+03
 1.101270960E+03	 3.267800049E+03
 1.101831778E+03	 3.284000000E+03
 1.102392536E+03	 3.267600098E+03
 1.102953236E+03	 3.289800049E+03
 1.103513878E+03	 3.289000000E+03
 1.104074460E+03	 3.304399902E+03
 1.104634984E+03	 3.278000000E+03
 1.105195450E+03	 3.274600098E+03
 1.105755857E+03	 3.322000000E+03
 1.106316205E+03	 3.326000000E+03
 1.106876495E+03	 3.306399902E+03
 1.107436726E+03	 3.316399902E+03
 1.107996898E+03	 3.323000000E+03
 1.108557012E+03	 3.309800049E+03
 1.109117067E+03	 3.307800049E+03
 1.109677064E+03	 3.316399902E+03
 1.110237002E+03	 3.314600098E+03
 1.110796882E+03	 3.360399902E+03
 1.111356703E+03	 3.338600098E+03
 1.111916465E+03	 3.370399902E+03
 1.112476169E+03	 3.332600098E+03
 1.113035814E+03	 3.371600098E+03
 1.113595401E+03	 3.350800049E+03
 1.114154929E+03	 3.354600098E+03
 1.114714399E+03	 3.399800049E+03
 1.115273810E+03	 3.389600098E+03
 1.115833163E+03	 3.407600098E+03
 1.116392457E+03	 3.389000000E+03
 1.116951693E+03	 3.354199951E+03
 1.117510870E+03	 3.424600098E+03
 1.118069988E+03	 3.393199951E+03
 1.118629048E+03	 3.429399902E+03
 1.119188050E+03	 3.432199951E+03
 1.119746993E+03	 3.397000000E+03
 1.120305877E+03	 3.441800049E+03
 1.120864703E+03	 3.419199951E+03
 1.121423471E+03	 3.450800049E+03
 1.121982180E+03	 3.454399902E+03
 1.122540831E+03	 3.430600098E+03
 1.123099423E+03	 3.422000000E+03
 1.123657957E+03	 3.455600098E+03
 1.124216432E+03	 3.460600098E+03
 1.124774849E+03	 3.436600098E+03
 1.125333207E+03	 3.483199951E+03
 1.125891507E+03	 3.461800049E+03
 1.126449748E+03	 3.447199951E+03
 1.127007931E+03	 3.485000000E+03
 1.127566056E+03	 3.473000000E+03
 1.128124122E+03	 3.478399902E+03
 1.128682130E+03	 3.482800049E+03
 1.129240079E+03	 3.494199951E+03
 1.129797970E+03	 3.522399902E+03
 1.130355802E+03	 3.535000000E+03
 1.130913576E+03	 3.507600098E+03
 1.131471292E+03	 3.512800049E+03
 1.132028949E+03	 3.547800049E+03
 1.132586548E+03	 3.545800049E+03
 1.133144089E+03	 3.584000000E+03
 1.133701571E+03	 3.547600098E+03
 1.134258995E+03	 3.574199951E+03
 1.134816360E+03	 3.569600098E+03
 1.135373667E+03	 3.561800049E+03
 1.135930916E+03	 3.571199951E+03
 1.136488106E+03	 3.521000000E+03
 1.137045238E+03	 3.597199951E+03
 1.137602311E+03	 3.563399902E+03
 1.138159327E+03	 3.606399902E+03
 1.138716284E+03	 3.600600098E+03
 1.139273182E+03	 3.598800049E+03
 1.139830022E+03	 3.597800049E+03
 1.140386804E+03	 3.579199951E+03
 1.140943528E+03	 3.599800049E+03
 1.141500193E+03	 3.629600098E+03
 1.142056800E+03	 3.630600098E+03
 1.142613349E+03	 3.616199951E+03
 1.143169839E+03	 3.591199951E+03
 1.143726271E+03	 3.642000000E+03
 1.144282645E+03	 3.634199951E+03
 1.144838960E+03	 3.672600098E+03
 1.145395218E+03	 3.643600098E+03
 1.145951417E+03	 3.687800049E+03
 1.146507557E+03	 3.659199951E+03
 1.147063640E+03	 3.677800049E+03
 1.147619664E+03	 3.669199951E+03
 1.148175630E+03	 3.650800049E+03
 1.148731537E+03	 3.658199951E+03
 1.149287386E+03	 3.654199951E+03
 1.149843178E+03	 3.696600098E+03
 1.150398910E+03	 3.695399902E+03
 1.150954585E+03	 3.715600098E+03
 1.151510201E+03	 3.684800049E+03
 1.152065760E+03	 3.715800049E+03
 1.152621260E+03	 3.730600098E+03
 1.153176701E+03	 3.698199951E+03
 1.153732085E+03	 3.697000000E+03
 1.154287410E+03	 3.711800049E+03
 1.154842677E+03	 3.705000000E+03
 1.155397886E+03	 3.729399902E+03
 1.155953037E+03	 3.710600098E+03
 1.156508129E+03	 3.718800049E+03
 1.157063164E+03	 3.723000000E+03
 1.157618140E+03	 3.725399902E+03
 1.158173058E+03	 3.724399902E+03
 1.158727917E+03	 3.740399902E+03
 1.159282719E+03	 3.717000000E+03
 1.159837463E+03	 3.725600098E+03
 1.160392148E+03	 3.764399902E+03
 1.160946775E+03	 3.727800049E+03
 1.161501344E+03	 3.740600098E+03
 1.162055855E+03	 3.745399902E+03
 1.162610308E+03	 3.753800049E+03
 1.163164702E+03	 3.768399902E+03
 1.163719039E+03	 3.744800049E+03
 1.164273317E+03	 3.739800049E+03
 1.164827537E+03	 3.787199951E+03
 1.165381699E+03	 3.771600098E+03
 1.165935803E+03	 3.769399902E+03
 1.166489849E+03	 3.767000000E+03
 1.167043837E+03	 3.769800049E+03
 1.167597767E+03	 3.778000000E+03
 1.168151638E+03	 3.769800049E+03
 1.168705452E+03	 3.775000000E+03
 1.169259207E+03	 3.790199951E+03
 1.169812904E+03	 3.815399902E+03
 1.170366544E+03	 3.807399902E+03
 1.170920125E+03	 3.775800049E+03
 1.171473648E+03	 3.807600098E+03
 1.172027113E+03	 3.807000000E+03
 1.172580520E+03	 3.798199951E+03
 1.173133869E+03	 3.785399902E+03
 1.173687160E+03	 3.821399902E+03
 1.174240393E+03	 3.806399902E+03
 1.174793567E+03	 3.812000000E+03
 1.175346684E+03	 3.845600098E+03
 1.175899743E+03	 3.859399902E+03
 1.176452744E+03	 3.828000000E+03
 1.177005686E+03	 3.809199951E+03
 1.177558571E+03	 3.829000000E+03
 1.178111398E+03	 3.827800049E+03
 1.178664167E+03	 3.863199951E+03
 1.179216877E+03	 3.867600098E+03
 1.179769530E+03	 3.876800049E+03
 1.180322125E+03	 3.857199951E+03
 1.180874661E+03	 3.827600098E+03
 1.181427140E+03	 3.850199951E+03
 1.181979561E+03	 3.820800049E+03
 1.182531924E+03	 3.874199951E+03
 1.183084228E+03	 3.811399902E+03
 1.183636475E+03	 3.875800049E+03
 1.184188664E+03	 3.864800049E+03
 1.184740795E+03	 3.872000000E+03
 1.185292868E+03	 3.848199951E+03
 1.185844883E+03	 3.878600098E+03
 1.186396840E+03	 3.881600098E+03
 1.186948739E+03	 3.887399902E+03
 1.187500581E+03	 3.849199951E+03
 1.188052364E+03	 3.870199951E+03
 1.188604089E+03	 3.899399902E+03
 1.189155757E+03	 3.906399902E+03
 1.189707366E+03	 3.902199951E+03
 1.190258918E+03	 3.895199951E+03
 1.190810412E+03	 3.891600098E+03
 1.191361847E+03	 3.907399902E+03
 1.191913225E+03	 3.906399902E+03
 1.192464545E+03	 3.948600098E+03
 1.193015808E+03	 3.906199951E+03
 1.193567012E+03	 3.950600098E+03
 1.194118158E+03	 3.910600098E+03
 1.194669247E+03	 3.932000000E+03
 1.195220278E+03	 3.909199951E+03
 1.195771250E+03	 3.954199951E+03
 1.196322165E+03	 3.944600098E+03
 1.196873022E+03	 3.935399902E+03
 1.197423822E+03	 3.932800049E+03
 1.197974563E+03	 3.977000000E+03
 1.198525247E+03	 3.958000000E+03
 1.199075872E+03	 3.970399902E+03
 1.199626440E+03	 3.951600098E+03
 1.200176950E+03	 3.989000000E+03
 1.200727403E+03	 3.977800049E+03
 1.201277797E+03	 3.980600098E+03
 1.201828134E+03	 3.981399902E+03
 1.202378412E+03	 3.995199951E+03
 1.202928633E+03	 3.985399902E+03
 1.203478797E+03	 3.983800049E+03
 1.204028902E+03	 3.975800049E+03
 1.204578950E+03	 4.000399902E+03
 1.205128940E+03	 3.999199951E+03
 1.205678872E+03	 4.029000000E+03
 1.206228746E+03	 4.045800049E+03
 1.206778562E+03	 4.038800049E+03
 1.207328321E+03	 4.034399902E+03
 1.207878022E+03	 4.056800049E+03
 1.208427665E+03	 4.042199951E+03
 1.208977251E+03	 4.056600098E+03
 1.209526779E+03	 4.046800049E+03
 1.210076249E+03	 4.035600098E+03
 1.210625661E+03	 4.046800049E+03
 1.211175015E+03	 4.047600098E+03
 1.211724312E+03	 4.063199951E+03
 1.212273551E+03	 4.065600098E+03
 1.212822733E+03	 4.053199951E+03
 1.213371856E+03	 4.050800049E+03
 1.213920922E+03	 4.066600098E+03
 1.214469930E+03	 4.072800049E+03
 1.215018881E+03	 4.088399902E+03
 1.215567774E+03	 4.089000000E+03
 1.216116609E+03	 4.089199951E+03
 1.216665386E+03	 4.106000000E+03
 1.217214106E+03	 4.078199951E+03
 1.217762768E+03	 4.106200195E+03
 1.218311372E+03	 4.089800049E+03
 1.218859919E+03	 4.111799805E+03
 1.219408408E+03	 4.097399902E+03
 1.219956840E+03	 4.127200195E+03
 1.220505213E+03	 4.132399902E+03
 1.221053530E+03	 4.141799805E+03
 1.221601788E+03	 4.136799805E+03
 1.222149989E+03	 4.168600098E+03
 1.222698132E+03	 4.134399902E+03
 1.223246218E+03	 4.141600098E+03
 1.223794245E+03	 4.168200195E+03
 1.224342216E+03	 4.149399902E+03
 1.224890128E+03	 4.161600098E+03
 1.225437983E+03	 4.171000000E+03
 1.225985781E+03	 4.201000000E+03
 1.226533521E+03	 4.173200195E+03
 1.227081203E+03	 4.189399902E+03
 1.227628828E+03	 4.202000000E+03
 1.228176395E+03	 4.171799805E+03
 1.228723904E+03	 4.206399902E+03
 1.229271356E+03	 4.193600098E+03
 1.229818750E+03	 4.176600098E+03
 1.230366087E+03	 4.209799805E+03
 1.230913366E+03	 4.198600098E+03
 1.231460588E+03	 4.198399902E+03
 1.232007752E+03	 4.199000000E+03
 1.232554858E+03	 4.242000000E+03
 1.233101907E+03	 4.208600098E+03
 1.233648898E+03	 4.245799805E+03
 1.234195832E+03	 4.232399902E+03
 1.234742709E+03	 4.268000000E+03
 1.235289527E+03	 4.224399902E+03
 1.235836289E+03	 4.271600098E+03
 1.236382992E+03	 4.226799805E+03
 1.236929639E+03	 4.210399902E+03
 1.237476227E+03	 4.255600098E+03
 1.238022758E+03	 4.277799805E+03
 1.238569232E+03	 4.254799805E+03
 1.239115648E+03	 4.267600098E+03
 1.239662007E+03	 4.280600098E+03
 1.240208308E+03	 4.258200195E+03
 1.240754552E+03	 4.306600098E+03
 1.241300738E+03	 4.239399902E+03
 1.241846867E+03	 4.276200195E+03
 1.242392938E+03	 4.282200195E+03
 1.242938952E+03	 4.335200195E+03
 1.243484908E+03	 4.323399902E+03
 1.244030807E+03	 4.311200195E+03
 1.244576648E+03	 4.298200195E+03
 1.245122432E+03	 4.335799805E+03
 1.245668159E+03	 4.305600098E+03
 1.246213828E+03	 4.355200195E+03
 1.246759440E+03	 4.357399902E+03
 1.247304994E+03	 4.350200195E+03
 1.247850490E+03	 4.349399902E+03
 1.248395930E+03	 4.340399902E+03
 1.248941312E+03	 4.344399902E+03
 1.249486636E+03	 4.360600098E+03
 1.250031903E+03	 4.355000000E+03
 1.250577113E+03	 4.354200195E+03
 1.251122265E+03	 4.365600098E+03
 1.251667360E+03	 4.353000000E+03
 1.252212398E+03	 4.355000000E+03
 1.252757378E+03	 4.368000000E+03
 1.253302301E+03	 4.395200195E+03
 1.253847166E+03	 4.431799805E+03
 1.254391974E+03	 4.397799805E+03
 1.254936725E+03	 4.398000000E+03
 1.255481418E+03	 4.400200195E+03
 1.256026054E+03	 4.437000000E+03
 1.256570632E+03	 4.450799805E+03
 1.257115154E+03	 4.463600098E+03
 1.257659617E+03	 4.485200195E+03
 1.258204024E+03	 4.511200195E+03
 1.258748373E+03	 4.486799805E+03
 1.259292665E+03	 4.501399902E+03
 1.259836900E+03	 4.564799805E+03
 1.260381077E+03	 4.551399902E+03
 1.260925197E+03	 4.577000000E+03
 1.261469259E+03	 4.640600098E+03
 1.262013264E+03	 4.634399902E+03
 1.262557212E+03	 4.618399902E+03
 1.263101103E+03	 4.628799805E+03
 1.263644936E+03	 4.600000000E+03
 1.264188712E+03	 4.592600098E+03
 1.264732431E+03	 4.555000000E+03
 1.265276093E+03	 4.566399902E+03
 1.265819697E+03	 4.566600098E+03
 1.266363244E+03	 4.523000000E+03
 1.266906734E+03	 4.535600098E+03
 1.267450166E+03	 4.544600098E+03
 1.267993541E+03	 4.557000000E+03
 1.268536859E+03	 4.560600098E+03
 1.269080120E+03	 4.547200195E+03
 1.269623323E+03	 4.557799805E+03
 1.270166469E+03	 4.555200195E+03
 1.270709558E+03	 4.585600098E+03
 1.271252590E+03	 4.558399902E+03
 1.271795564E+03	 4.566399902E+03
 1.272338481E+03	 4.587799805E+03
 1.272881341E+03	 4.558600098E+03
 1.273424144E+03	 4.580600098E+03
 1.273966890E+03	 4.624000000E+03
 1.274509578E+03	 4.608600098E+03
 1.275052209E+03	 4.638200195E+03
 1.275594783E+03	 4.627000000E+03
 1.276137300E+03	 4.678600098E+03
 1.276679760E+03	 4.665000000E+03
 1.277222162E+03	 4.705399902E+03
 1.277764507E+03	 4.716200195E+03
 1.278306796E+03	 4.786200195E+03
 1.278849026E+03	 4.818600098E+03
 1.279391200E+03	 4.956000000E+03
 1.279933317E+03	 5.162399902E+03
 1.280475376E+03	 5.634799805E+03
 1.281017378E+03	 6.554799805E+03
 1.281559324E+03	 8.355400391E+03
 1.282101212E+03	 9.785400391E+03
 1.282643042E+03	 9.228799805E+03
 1.283184816E+03	 7.477200195E+03
 1.283726533E+03	 6.124799805E+03
 1.284268192E+03	 5.448399902E+03
 1.284809795E+03	 5.197600098E+03
 1.285351340E+03	 4.977200195E+03
 1.285892828E+03	 4.911000000E+03
 1.286434259E+03	 4.864799805E+03
 1.286975633E+03	 4.807399902E+03
 1.287516950E+03	 4.743799805E+03
 1.288058209E+03	 4.722600098E+03
 1.288599412E+03	 4.761399902E+03
 1.289140558E+03	 4.724000000E+03
 1.289681646E+03	 4.688200195E+03
 1.290222677E+03	 4.704399902E+03
 1.290763652E+03	 4.703600098E+03
 1.291304569E+03	 4.655200195E+03
 1.291845429E+03	 4.718799805E+03
 1.292386232E+03	 4.703000000E+03
 1.292926979E+03	 4.686799805E+03
 1.293467668E+03	 4.721399902E+03
 1.294008300E+03	 4.678399902E+03
 1.294548875E+03	 4.697200195E+03
 1.295089392E+03	 4.682000000E+03
 1.295629853E+03	 4.715799805E+03
 1.296170257E+03	 4.690799805E+03
 1.296710604E+03	 4.686000000E+03
 1.297250894E+03	 4.679600098E+03
 1.297791127E+03	 4.684600098E+03
 1.298331303E+03	 4.685399902E+03
 1.298871422E+03	 4.735200195E+03
 1.299411483E+03	 4.710200195E+03
 1.299951488E+03	 4.710000000E+03
 1.300491436E+03	 4.675600098E+03
 1.301031327E+03	 4.697000000E+03
 1.301571161E+03	 4.676799805E+03
 1.302110938E+03	 4.705000000E+03
 1.302650658E+03	 4.742600098E+03
 1.303190321E+03	 4.733000000E+03
 1.303729927E+03	 4.734200195E+03
 1.304269476E+03	 4.736799805E+03
 1.304808968E+03	 4.728399902E+03
 1.305348403E+03	 4.741600098E+03
 1.305887781E+03	 4.749000000E+03
 1.306427102E+03	 4.707600098E+03
 1.306966367E+03	 4.762200195E+03
 1.307505574E+03	 4.746399902E+03
 1.308044725E+03	 4.697399902E+03
 1.308583818E+03	 4.760000000E+03
 1.309122855E+03	 4.729000000E+03
 1.309661835E+03	 4.748399902E+03
 1.310200757E+03	 4.755799805E+03
 1.310739623E+03	 4.735600098E+03
 1.311278432E+03	 4.767200195E+03
 1.311817185E+03	 4.751600098E+03
 1.312355880E+03	 4.769799805E+03
 1.312894518E+03	 4.745000000E+03
 1.313433100E+03	 4.773200195E+03
 1.313971624E+03	 4.764000000E+03
 1.314510092E+03	 4.777000000E+03
 1.315048503E+03	 4.800200195E+03
 1.315586857E+03	 4.785600098E+03
 1.316125154E+03	 4.770799805E+03
 1.316663394E+03	 4.819600098E+03
 1.317201578E+03	 4.810000000E+03
 1.317739704E+03	 4.787600098E+03
 1.318277774E+03	 4.804200195E+03
 1.318815787E+03	 4.784399902E+03
 1.319353743E+03	 4.824399902E+03
 1.319891642E+03	 4.812799805E+03
 1.320429485E+03	 4.818600098E+03
 1.320967270E+03	 4.822600098E+03
 1.321504999E+03	 4.834200195E+03
 1.322042671E+03	 4.822600098E+03
 1.322580286E+03	 4.816799805E+03
 1.323117845E+03	 4.808200195E+03
 1.323655346E+03	 4.844000000E+03
 1.324192791E+03	 4.838200195E+03
 1.324730179E+03	 4.825799805E+03
 1.325267511E+03	 4.890799805E+03
 1.325804785E+03	 4.827399902E+03
 1.326342003E+03	 4.874200195E+03
 1.326879164E+03	 4.814200195E+03
 1.327416268E+03	 4.900000000E+03
 1.327953315E+03	 4.905200195E+03
 1.328490306E+03	 4.856000000E+03
 1.329027240E+03	 4.889000000E+03
 1.329564117E+03	 4.902799805E+03
 1.330100937E+03	 4.883000000E+03
 1.330637701E+03	 4.885399902E+03
 1.331174408E+03	 4.891200195E+03
 1.331711058E+03	 4.862000000E+03
 1.332247652E+03	 4.910000000E+03
 1.332784188E+03	 4.890399902E+03
 1.333320668E+03	 4.894000000E+03
 1.333857092E+03	 4.890000000E+03
 1.334393458E+03	 4.898600098E+03
 1.334929768E+03	 4.894000000E+03
 1.335466022E+03	 4.903600098E+03
 1.336002218E+03	 4.913399902E+03
 1.336538358E+03	 4.898600098E+03
 1.337074441E+03	 4.871399902E+03
 1.337610468E+03	 4.934200195E+03
 1.338146438E+03	 4.903399902E+03
 1.338682351E+03	 4.931200195E+03
 1.339218207E+03	 4.933600098E+03
 1.339754007E+03	 4.950399902E+03
 1.340289750E+03	 4.893600098E+03
 1.340825437E+03	 4.922799805E+03
 1.341361067E+03	 4.943200195E+03
 1.341896640E+03	 4.965600098E+03
 1.342432156E+03	 4.889600098E+03
 1.342967616E+03	 4.936200195E+03
 1.343503020E+03	 4.971399902E+03
 1.344038366E+03	 4.947399902E+03
 1.344573657E+03	 4.982799805E+03
 1.345108890E+03	 4.925399902E+03
 1.345644067E+03	 4.977000000E+03
 1.346179187E+03	 4.948000000E+03
 1.346714251E+03	 4.963600098E+03
 1.347249258E+03	 4.917799805E+03
 1.347784208E+03	 4.959399902E+03
 1.348319102E+03	 4.953000000E+03
 1.348853939E+03	 4.970399902E+03
 1.349388720E+03	 4.946399902E+03
 1.349923444E+03	 4.966000000E+03
 1.350458112E+03	 4.972000000E+03
 1.350992723E+03	 5.003200195E+03
 1.351527277E+03	 4.954799805E+03
 1.352061775E+03	 4.961799805E+03
 1.352596216E+03	 4.976000000E+03
 1.353130601E+03	 4.967200195E+03
 1.353664929E+03	 5.003200195E+03
 1.354199201E+03	 4.995399902E+03
 1.354733416E+03	 4.984399902E+03
 1.355267575E+03	 4.954399902E+03
 1.355801677E+03	 4.984200195E+03
 1.356335722E+03	 5.014200195E+03
 1.356869711E+03	 5.019799805E+03
 1.357403644E+03	 4.990600098E+03
 1.357937520E+03	 5.031000000E+03
 1.358471340E+03	 4.976200195E+03
 1.359005103E+03	 5.036799805E+03
 1.359538809E+03	 4.987399902E+03
 1.360072459E+03	 5.040799805E+03
 1.360606053E+03	 5.014399902E+03
 1.361139590E+03	 5.025799805E+03
 1.361673070E+03	 5.024600098E+03
 1.362206494E+03	 5.012399902E+03
 1.362739862E+03	 5.028000000E+03
 1.363273173E+03	 5.036200195E+03
 1.363806428E+03	 5.115200195E+03
 1.364339626E+03	 5.072600098E+03
 1.364872768E+03	 5.081000000E+03
 1.365405853E+03	 5.029399902E+03
 1.365938882E+03	 5.081600098E+03
 1.366471855E+03	 5.034799805E+03
 1.367004771E+03	 5.077000000E+03
 1.367537630E+03	 5.068399902E+03
 1.368070434E+03	 5.067000000E+03
 1.368603180E+03	 5.082000000E+03
 1.369135871E+03	 5.154000000E+03
 1.369668505E+03	 5.237600098E+03
 1.370201082E+03	 5.218000000E+03
 1.370733603E+03	 5.181200195E+03
 1.371266068E+03	 5.113000000E+03
 1.371798476E+03	 5.130799805E+03
 1.372330828E+03	 5.139000000E+03
 1.372863124E+03	 5.098000000E+03
 1.373395363E+03	 5.142399902E+03
 1.373927546E+03	 5.162200195E+03
 1.374459672E+03	 5.153600098E+03
 1.374991743E+03	 5.145000000E+03
 1.375523756E+03	 5.146200195E+03
 1.376055714E+03	 5.177399902E+03
 1.376587615E+03	 5.180399902E+03
 1.377119459E+03	 5.163000000E+03
 1.377651248E+03	 5.209799805E+03
 1.378182980E+03	 5.224200195E+03
 1.378714655E+03	 5.268000000E+03
 1.379246274E+03	 5.270399902E+03
 1.379777837E+03	 5.278000000E+03
 1.380309344E+03	 5.284000000E+03
 1.380840794E+03	 5.338200195E+03
 1.381372188E+03	 5.364799805E+03
 1.381903526E+03	 5.406799805E+03
 1.382434808E+03	 5.445399902E+03
 1.382966033E+03	 5.519600098E+03
 1.383497201E+03	 5.640200195E+03
 1.384028314E+03	 5.808799805E+03
 1.384559370E+03	 6.138799805E+03
 1.385090370E+03	 6.658799805E+03
 1.385621314E+03	 7.906399902E+03
 1.386152201E+03	 1.027959961E+04
 1.386683032E+03	 1.404100000E+04
 1.387213807E+03	 1.531440039E+04
 1.387744526E+03	 1.240379980E+04
 1.388275188E+03	 9.124599609E+03
 1.388805794E+03	 7.348399902E+03
 1.389336344E+03	 6.463399902E+03
 1.389866838E+03	 6.005000000E+03
 1.390397275E+03	 5.758600098E+03
 1.390927656E+03	 5.620600098E+03
 1.391457981E+03	 5.564799805E+03
 1.391988250E+03	 5.499799805E+03
 1.392518462E+03	 5.470200195E+03
 1.393048619E+03	 5.418799805E+03
 1.393578719E+03	 5.398200195E+03
 1.394108762E+03	 5.359799805E+03
 1.394638750E+03	 5.347600098E+03
 1.395168682E+03	 5.322399902E+03
 1.395698557E+03	 5.332399902E+03
 1.396228376E+03	 5.304000000E+03
 1.396758139E+03	 5.333399902E+03
 1.397287845E+03	 5.313600098E+03
 1.397817496E+03	 5.305600098E+03
 1.398347090E+03	 5.313799805E+03
 1.398876628E+03	 5.275399902E+03
 1.399406110E+03	 5.356000000E+03
 1.399935536E+03	 5.315799805E+03
 1.400464906E+03	 5.348799805E+03
 1.400994219E+03	 5.302200195E+03
 1.401523477E+03	 5.322799805E+03
 1.402052678E+03	 5.297799805E+03
 1.402581823E+03	 5.353799805E+03
 1.403110912E+03	 5.358000000E+03
 1.403639945E+03	 5.399200195E+03
 1.404168922E+03	 5.366200195E+03
 1.404697842E+03	 5.412200195E+03
 1.405226707E+03	 5.422600098E+03
 1.405755515E+03	 5.445600098E+03
 1.406284267E+03	 5.466799805E+03
 1.406812964E+03	 5.497799805E+03
 1.407341604E+03	 5.588600098E+03
 1.407870188E+03	 5.574000000E+03
 1.408398716E+03	 5.615000000E+03
 1.408927187E+03	 5.605799805E+03
 1.409455603E+03	 5.602799805E+03
 1.409983963E+03	 5.532000000E+03
 1.410512266E+03	 5.506399902E+03
 1.411040514E+03	 5.481399902E+03
 1.411568705E+03	 5.423000000E+03
 1.412096841E+03	 5.370399902E+03
 1.412624920E+03	 5.346799805E+03
 1.413152944E+03	 5.359200195E+03
 1.413680911E+03	 5.354600098E+03
 1.414208822E+03	 5.277200195E+03
 1.414736677E+03	 5.310000000E+03
 1.415264476E+03	 5.322000000E+03
 1.415792220E+03	 5.290799805E+03
 1.416319907E+03	 5.327399902E+03
 1.416847538E+03	 5.296799805E+03
 1.417375113E+03	 5.334000000E+03
 1.417902632E+03	 5.330000000E+03
 1.418430095E+03	 5.304399902E+03
 1.418957502E+03	 5.288200195E+03
 1.419484853E+03	 5.281399902E+03
 1.420012148E+03	 5.295600098E+03
 1.420539387E+03	 5.357799805E+03
 1.421066570E+03	 5.262200195E+03
 1.421593698E+03	 5.305000000E+03
 1.422120769E+03	 5.335000000E+03
 1.422647784E+03	 5.310399902E+03
 1.423174743E+03	 5.295600098E+03
 1.423701647E+03	 5.298799805E+03
 1.424228494E+03	 5.311200195E+03
 1.424755285E+03	 5.316799805E+03
 1.425282021E+03	 5.346600098E+03
 1.425808700E+03	 5.337799805E+03
 1.426335324E+03	 5.310000000E+03
 1.426861891E+03	 5.341399902E+03
 1.427388403E+03	 5.340200195E+03
 1.427914859E+03	 5.310000000E+03
 1.428441259E+03	 5.320799805E+03
 1.428967602E+03	 5.324600098E+03
 1.429493890E+03	 5.299200195E+03
 1.430020123E+03	 5.324000000E+03
 1.430546299E+03	 5.281399902E+03
 1.431072419E+03	 5.345200195E+03
 1.431598483E+03	 5.337200195E+03
 1.432124492E+03	 5.301200195E+03
 1.432650445E+03	 5.329600098E+03
 1.433176341E+03	 5.327200195E+03
 1.433702182E+03	 5.393600098E+03
 1.434227967E+03	 5.357200195E+03
 1.434753696E+03	 5.348000000E+03
 1.435279370E+03	 5.299200195E+03
 1.435804987E+03	 5.322200195E+03
 1.436330549E+03	 5.353799805E+03
 1.436856054E+03	 5.346600098E+03
 1.437381504E+03	 5.351399902E+03
 1.437906898E+03	 5.382200195E+03
 1.438432236E+03	 5.362399902E+03
 1.438957519E+03	 5.344799805E+03
 1.439482745E+03	 5.369399902E+03
 1.440007916E+03	 5.386600098E+03
 1.440533031E+03	 5.369799805E+03
 1.441058090E+03	 5.362000000E+03
 1.441583093E+03	 5.399399902E+03
 1.442108041E+03	 5.382600098E+03
 1.442632932E+03	 5.361600098E+03
 1.443157768E+03	 5.375399902E+03
 1.443682548E+03	 5.356000000E+03
 1.444207272E+03	 5.346600098E+03
 1.444731941E+03	 5.437799805E+03
 1.445256554E+03	 5.399399902E+03
 1.445781111E+03	 5.404000000E+03
 1.446305612E+03	 5.396399902E+03
 1.446830057E+03	 5.417000000E+03
 1.447354447E+03	 5.435200195E+03
 1.447878781E+03	 5.374200195E+03
 1.448403059E+03	 5.403399902E+03
 1.448927281E+03	 5.363799805E+03
 1.449451448E+03	 5.379399902E+03
 1.449975559E+03	 5.394399902E+03
 1.450499614E+03	 5.393200195E+03
 1.451023613E+03	 5.380000000E+03
 1.451547557E+03	 5.393600098E+03
 1.452071445E+03	 5.390600098E+03
 1.452595277E+03	 5.380600098E+03
 1.453119054E+03	 5.381799805E+03
 1.453642774E+03	 5.398000000E+03
 1.454166440E+03	 5.404000000E+03
 1.454690049E+03	 5.397000000E+03
 1.455213603E+03	 5.388200195E+03
 1.455737101E+03	 5.394000000E+03
 1.456260543E+03	 5.403799805E+03
 1.456783930E+03	 5.407200195E+03
 1.457307261E+03	 5.438000000E+03
 1.457830536E+03	 5.405200195E+03
 1.458353756E+03	 5.388799805E+03
 1.458876920E+03	 5.410799805E+03
 1.459400028E+03	 5.421799805E+03
 1.459923081E+03	 5.406799805E+03
 1.460446078E+03	 5.390399902E+03
 1.460969019E+03	 5.389000000E+03
 1.461491905E+03	 5.460799805E+03
 1.462014735E+03	 5.436200195E+03
 1.462537509E+03	 5.431399902E+03
 1.463060228E+03	 5.470600098E+03
 1.463582891E+03	 5.398200195E+03
 1.464105499E+03	 5.453600098E+03
 1.464628051E+03	 5.408000000E+03
 1.465150547E+03	 5.421799805E+03
 1.465672988E+03	 5.414200195E+03
 1.466195373E+03	 5.411000000E+03
 1.466717702E+03	 5.446000000E+03
 1.467239976E+03	 5.410200195E+03
 1.467762195E+03	 5.436600098E+03
 1.468284357E+03	 5.402200195E+03
 1.468806464E+03	 5.442200195E+03
 1.469328516E+03	 5.422600098E+03
 1.469850512E+03	 5.463600098E+03
 1.470372452E+03	 5.401200195E+03
 1.470894337E+03	 5.437600098E+03
 1.471416167E+03	 5.448600098E+03
 1.471937940E+03	 5.447399902E+03
 1.472459659E+03	 5.454600098E+03
 1.472981321E+03	 5.442600098E+03
 1.473502928E+03	 5.464799805E+03
 1.474024480E+03	 5.443200195E+03
 1.474545976E+03	 5.440399902E+03
 1.475067416E+03	 5.456200195E+03
 1.475588801E+03	 5.453600098E+03
 1.476110131E+03	 5.448200195E+03
 1.476631405E+03	 5.464200195E+03
 1.477152623E+03	 5.479399902E+03
 1.477673786E+03	 5.517399902E+03
 1.478194894E+03	 5.461200195E+03
 1.478715946E+03	 5.460200195E+03
 1.479236942E+03	 5.448399902E+03
 1.479757883E+03	 5.460000000E+03
 1.480278768E+03	 5.459200195E+03
 1.480799598E+03	 5.475399902E+03
 1.481320373E+03	 5.489600098E+03
 1.481841092E+03	 5.474200195E+03
 1.482361755E+03	 5.483799805E+03
 1.482882363E+03	 5.523399902E+03
 1.483402916E+03	 5.483600098E+03
 1.483923413E+03	 5.447799805E+03
 1.484443855E+03	 5.476399902E+03
 1.484964241E+03	 5.467600098E+03
 1.485484572E+03	 5.489799805E+03
 1.486004847E+03	 5.500399902E+03
 1.486525067E+03	 5.507399902E+03
 1.487045232E+03	 5.476000000E+03
 1.487565341E+03	 5.492600098E+03
 1.488085395E+03	 5.487399902E+03
 1.488605393E+03	 5.512200195E+03
 1.489125336E+03	 5.511200195E+03
 1.489645223E+03	 5.497799805E+03
 1.490165055E+03	 5.482799805E+03
 1.490684832E+03	 5.497399902E+03
 1.491204553E+03	 5.470200195E+03
 1.491724219E+03	 5.535200195E+03
 1.492243829E+03	 5.465200195E+03
 1.492763385E+03	 5.477399902E+03
 1.493282884E+03	 5.467200195E+03
 1.493802329E+03	 5.546000000E+03
 1.494321718E+03	 5.481000000E+03
 1.494841051E+03	 5.436799805E+03
 1.495360329E+03	 5.492399902E+03
 1.495879552E+03	 5.490200195E+03
 1.496398720E+03	 5.544399902E+03
 1.496917832E+03	 5.477399902E+03
 1.497436889E+03	 5.483399902E+03
 1.497955890E+03	 5.503000000E+03
 1.498474837E+03	 5.514799805E+03
 1.498993727E+03	 5.492399902E+03
 1.499512563E+03	 5.501600098E+03
 1.500031343E+03	 5.479000000E+03
 1.500550068E+03	 5.503399902E+03
 1.501068738E+03	 5.487000000E+03
 1.501587352E+03	 5.518000000E+03
 1.502105911E+03	 5.515200195E+03
 1.502624414E+03	 5.509200195E+03
 1.503142863E+03	 5.521200195E+03
 1.503661256E+03	 5.515600098E+03
 1.504179594E+03	 5.562799805E+03
 1.504697876E+03	 5.528399902E+03
 1.505216103E+03	 5.537799805E+03
 1.505734275E+03	 5.505600098E+03
 1.506252392E+03	 5.519799805E+03
 1.506770454E+03	 5.542000000E+03
 1.507288460E+03	 5.516200195E+03
 1.507806411E+03	 5.536200195E+03
 1.508324306E+03	 5.513799805E+03
 1.508842147E+03	 5.547799805E+03
 1.509359932E+03	 5.550200195E+03
 1.509877662E+03	 5.515799805E+03
 1.510395337E+03	 5.535200195E+03
 1.510912956E+03	 5.559000000E+03
 1.511430520E+03	 5.501600098E+03
 1.511948029E+03	 5.529200195E+03
 1.512465483E+03	 5.525200195E+03
 1.512982882E+03	 5.532399902E+03
 1.513500225E+03	 5.531799805E+03
 1.514017513E+03	 5.567000000E+03
 1.514534746E+03	 5.532399902E+03
 1.515051924E+03	 5.500799805E+03
 1.515569047E+03	 5.579600098E+03
 1.516086114E+03	 5.494399902E+03
 1.516603126E+03	 5.542200195E+03
 1.517120084E+03	 5.537399902E+03
 1.517636985E+03	 5.533799805E+03
 1.518153832E+03	 5.507799805E+03
 1.518670624E+03	 5.543600098E+03
 1.519187360E+03	 5.560600098E+03
 1.519704041E+03	 5.499799805E+03
 1.520220667E+03	 5.497600098E+03
 1.520737238E+03	 5.530000000E+03
 1.521253754E+03	 5.549399902E+03
 1.521770215E+03	 5.548200195E+03
 1.522286620E+03	 5.530600098E+03
 1.522802971E+03	 5.514000000E+03
 1.523319266E+03	 5.520399902E+03
 1.523835506E+03	 5.488000000E+03
 1.524351691E+03	 5.459799805E+03
 1.524867821E+03	 5.510200195E+03
 1.525383896E+03	 5.512000000E+03
 1.525899916E+03	 5.503000000E+03
 1.526415881E+03	 5.530799805E+03
 1.526931790E+03	 5.500200195E+03
 1.527447645E+03	 5.558200195E+03
 1.527963444E+03	 5.510799805E+03
 1.528479188E+03	 5.519600098E+03
 1.528994877E+03	 5.484799805E+03
 1.529510512E+03	 5.515000000E+03
 1.530026091E+03	 5.512000000E+03
 1.530541615E+03	 5.569200195E+03
 1.531057084E+03	 5.541000000E+03
 1.531572497E+03	 5.536399902E+03
 1.532087856E+03	 5.555600098E+03
 1.532603160E+03	 5.504399902E+03
 1.533118409E+03	 5.473799805E+03
 1.533633603E+03	 5.504000000E+03
 1.534148741E+03	 5.481200195E+03
 1.534663825E+03	 5.519399902E+03
 1.535178853E+03	 5.522600098E+03
 1.535693827E+03	 5.522399902E+03
 1.536208746E+03	 5.518200195E+03
 1.536723609E+03	 5.537600098E+03
 1.537238418E+03	 5.483799805E+03
 1.537753171E+03	 5.493000000E+03
 1.538267870E+03	 5.484799805E+03
 1.538782514E+03	 5.503200195E+03
 1.539297102E+03	 5.481799805E+03
 1.539811636E+03	 5.512399902E+03
 1.540326114E+03	 5.540200195E+03
 1.540840538E+03	 5.513000000E+03
 1.541354907E+03	 5.538799805E+03
 1.541869220E+03	 5.488399902E+03
 1.542383479E+03	 5.541399902E+03
 1.542897683E+03	 5.553000000E+03
 1.543411832E+03	 5.499000000E+03
 1.543925926E+03	 5.524799805E+03
 1.544439964E+03	 5.523799805E+03
 1.544953948E+03	 5.518600098E+03
 1.545467877E+03	 5.531399902E+03
 1.545981752E+03	 5.507200195E+03
 1.546495571E+03	 5.508799805E+03
 1.547009335E+03	 5.491399902E+03
 1.547523044E+03	 5.536799805E+03
 1.548036699E+03	 5.530000000E+03
 1.548550298E+03	 5.561600098E+03
 1.549063843E+03	 5.522799805E+03
 1.549577333E+03	 5.544000000E+03
 1.550090767E+03	 5.538399902E+03
 1.550604147E+03	 5.540200195E+03
 1.551117472E+03	 5.545399902E+03
 1.551630742E+03	 5.529000000E+03
 1.552143958E+03	 5.532000000E+03
 1.552657118E+03	 5.529399902E+03
 1.553170224E+03	 5.543600098E+03
 1.553683274E+03	 5.545000000E+03
 1.554196270E+03	 5.576000000E+03
 1.554709211E+03	 5.548000000E+03
 1.555222097E+03	 5.541600098E+03
 1.555734928E+03	 5.550200195E+03
 1.556247705E+03	 5.530000000E+03
 1.556760426E+03	 5.547799805E+03
 1.557273093E+03	 5.553799805E+03
 1.557785705E+03	 5.548799805E+03
 1.558298262E+03	 5.534600098E+03
 1.558810764E+03	 5.579399902E+03
 1.559323211E+03	 5.566200195E+03
 1.559835604E+03	 5.586799805E+03
 1.560347941E+03	 5.549600098E+03
 1.560860224E+03	 5.580000000E+03
 1.561372452E+03	 5.548000000E+03
 1.561884626E+03	 5.536799805E+03
 1.562396744E+03	 5.565600098E+03
 1.562908808E+03	 5.544200195E+03
 1.563420817E+03	 5.608200195E+03
 1.563932771E+03	 5.564600098E+03
 1.564444671E+03	 5.567000000E+03
 1.564956515E+03	 5.571399902E+03
 1.565468305E+03	 5.601399902E+03
 1.565980040E+03	 5.555600098E+03
 1.566491721E+03	 5.578399902E+03
 1.567003346E+03	 5.539000000E+03
 1.567514917E+03	 5.573799805E+03
 1.568026433E+03	 5.569200195E+03
 1.568537894E+03	 5.557799805E+03
 1.569049301E+03	 5.571600098E+03
 1.569560653E+03	 5.566399902E+03
 1.570071950E+03	 5.579799805E+03
 1.570583192E+03	 5.569799805E+03
 1.571094380E+03	 5.597399902E+03
 1.571605513E+03	 5.594000000E+03
 1.572116591E+03	 5.574200195E+03
 1.572627615E+03	 5.557799805E+03
 1.573138584E+03	 5.573399902E+03
 1.573649498E+03	 5.574399902E+03
 1.574160357E+03	 5.565799805E+03
 1.574671162E+03	 5.605200195E+03
 1.575181912E+03	 5.587000000E+03
 1.575692608E+03	 5.608600098E+03
 1.576203248E+03	 5.588799805E+03
 1.576713834E+03	 5.630600098E+03
 1.577224366E+03	 5.613799805E+03
 1.577734843E+03	 5.587000000E+03
 1.578245265E+03	 5.599799805E+03
 1.578755632E+03	 5.604600098E+03
 1.579265945E+03	 5.606000000E+03
 1.579776203E+03	 5.554200195E+03
 1.580286406E+03	 5.632399902E+03
 1.580796555E+03	 5.621000000E+03
 1.581306649E+03	 5.608600098E+03
 1.581816689E+03	 5.611600098E+03
 1.582326674E+03	 5.621399902E+03
 1.582836604E+03	 5.643399902E+03
 1.583346480E+03	 5.617200195E+03
 1.583856301E+03	 5.634000000E+03
 1.584366067E+03	 5.618600098E+03
 1.584875779E+03	 5.639600098E+03
 1.585385437E+03	 5.626399902E+03
 1.585895039E+03	 5.624600098E+03
 1.586404587E+03	 5.646200195E+03
 1.586914081E+03	 5.638200195E+03
 1.587423520E+03	 5.689200195E+03
 1.587932904E+03	 5.642000000E+03
 1.588442234E+03	 5.616799805E+03
 1.588951509E+03	 5.613600098E+03
 1.589460730E+03	 5.621399902E+03
 1.589969896E+03	 5.613600098E+03
 1.590479007E+03	 5.654399902E+03
 1.590988064E+03	 5.608799805E+03
 1.591497067E+03	 5.625000000E+03
 1.592006015E+03	 5.641000000E+03
