 1.042057870E+03	 2.687000000E+03
 1.042624871E+03	 2.654000000E+03
 1.043191812E+03	 2.639800049E+03
 1.043758695E+03	 2.641399902E+03
 1.044325518E+03	 2.655000000E+03
 1.044892283E+03	 2.657600098E+03
 1.045458988E+03	 2.652399902E+03
 1.046025634E+03	 2.648000000E+03
 1.046592221E+03	 2.665000000E+03
 1.047158749E+03	 2.654800049E+03
 1.047725218E+03	 2.656800049E+03
 1.048291628E+03	 2.656800049E+03
 1.048857978E+03	 2.651600098E+03
 1.049424270E+03	 2.677600098E+03
 1.049990502E+03	 2.650800049E+03
 1.050556676E+03	 2.651600098E+03
 1.051122790E+03	 2.661399902E+03
 1.051688845E+03	 2.662199951E+03
 1.052254841E+03	 2.689000000E+03
 1.052820778E+03	 2.676199951E+03
 1.053386657E+03	 2.658399902E+03
 1.053952476E+03	 2.676399902E+03
 1.054518236E+03	 2.664000000E+03
 1.055083936E+03	 2.689800049E+03
 1.055649578E+03	 2.690199951E+03
 1.056215161E+03	 2.678199951E+03
 1.056780685E+03	 2.678000000E+03
 1.057346150E+03	 2.671000000E+03
 1.057911556E+03	 2.647800049E+03
 1.058476903E+03	 2.678800049E+03
 1.059042191E+03	 2.670199951E+03
 1.059607419E+03	 2.703600098E+03
 1.060172589E+03	 2.667199951E+03
 1.060737700E+03	 2.714399902E+03
 1.061302752E+03	 2.718399902E+03
 1.061867745E+03	 2.708800049E+03
 1.062432679E+03	 2.701600098E+03
 1.062997554E+03	 2.695199951E+03
 1.063562370E+03	 2.699800049E+03
 1.064127127E+03	 2.723800049E+03
 1.064691825E+03	 2.709399902E+03
 1.065256464E+03	 2.720000000E+03
 1.065821044E+03	 2.718399902E+03
 1.066385565E+03	 2.717800049E+03
 1.066950027E+03	 2.742199951E+03
 1.067514431E+03	 2.729399902E+03
 1.068078775E+03	 2.714600098E+03
 1.068643061E+03	 2.736000000E+03
 1.069207287E+03	 2.752800049E+03
 1.069771455E+03	 2.740800049E+03
 1.070335564E+03	 2.730000000E+03
 1.070899613E+03	 2.727000000E+03
 1.071463604E+03	 2.760199951E+03
 1.072027536E+03	 2.751399902E+03
 1.072591409E+03	 2.729399902E+03
 1.073155224E+03	 2.734399902E+03
 1.073718979E+03	 2.744399902E+03
 1.074282676E+03	 2.748800049E+03
 1.074846313E+03	 2.759000000E+03
 1.075409892E+03	 2.766600098E+03
 1.075973412E+03	 2.745800049E+03
 1.076536873E+03	 2.756800049E+03
 1.077100275E+03	 2.749600098E+03
 1.077663618E+03	 2.783000000E+03
 1.078226903E+03	 2.755199951E+03
 1.078790129E+03	 2.787199951E+03
 1.079353295E+03	 2.786000000E+03
 1.079916403E+03	 2.787600098E+03
 1.080479453E+03	 2.747199951E+03
 1.081042443E+03	 2.796800049E+03
 1.081605374E+03	 2.773800049E+03
 1.082168247E+03	 2.800600098E+03
 1.082731061E+03	 2.764399902E+03
 1.083293816E+03	 2.791800049E+03
 1.083856512E+03	 2.787800049E+03
 1.084419150E+03	 2.786800049E+03
 1.084981729E+03	 2.780600098E+03
 1.085544249E+03	 2.808800049E+03
 1.086106710E+03	 2.797000000E+03
 1.086669112E+03	 2.804000000E+03
 1.087231456E+03	 2.798600098E+03
 1.087793741E+03	 2.823399902E+03
 1.088355967E+03	 2.804000000E+03
 1.088918134E+03	 2.809199951E+03
 1.089480243E+03	 2.806199951E+03
 1.090042293E+03	 2.798800049E+03
 1.090604284E+03	 2.802199951E+03
 1.091166216E+03	 2.808199951E+03
 1.091728090E+03	 2.822199951E+03
 1.092289905E+03	 2.809199951E+03
 1.092851661E+03	 2.824399902E+03
 1.093413358E+03	 2.831600098E+03
 1.093974997E+03	 2.841000000E+03
 1.094536577E+03	 2.834000000E+03
 1.095098098E+03	 2.810000000E+03
 1.095659561E+03	 2.836600098E+03
 1.096220965E+03	 2.851199951E+03
 1.096782310E+03	 2.853000000E+03
 1.097343597E+03	 2.871800049E+03
 1.097904825E+03	 2.867399902E+03
 1.098465994E+03	 2.838800049E+03
 1.099027105E+03	 2.851000000E+03
 1.099588157E+03	 2.860199951E+03
 1.100149150E+03	 2.877199951E+03
 1.100710084E+03	 2.888399902E+03
 1.101270960E+03	 2.854600098E+03
 1.101831778E+03	 2.899000000E+03
 1.102392536E+03	 2.889399902E+03
 1.102953236E+03	 2.872800049E+03
 1.103513878E+03	 2.866800049E+03
 1.104074460E+03	 2.906800049E+03
 1.104634984E+03	 2.868199951E+03
 1.105195450E+03	 2.873600098E+03
 1.105755857E+03	 2.882000000E+03
 1.106316205E+03	 2.909399902E+03
 1.106876495E+03	 2.917000000E+03
 1.107436726E+03	 2.899800049E+03
 1.107996898E+03	 2.895000000E+03
 1.108557012E+03	 2.910800049E+03
 1.109117067E+03	 2.910399902E+03
 1.109677064E+03	 2.932399902E+03
 1.110237002E+03	 2.922399902E+03
 1.110796882E+03	 2.939600098E+03
 1.111356703E+03	 2.926199951E+03
 1.111916465E+03	 2.926000000E+03
 1.112476169E+03	 2.926199951E+03
 1.113035814E+03	 2.939600098E+03
 1.113595401E+03	 2.920800049E+03
 1.114154929E+03	 2.944800049E+03
 1.114714399E+03	 2.950600098E+03
 1.115273810E+03	 2.968399902E+03
 1.115833163E+03	 2.956399902E+03
 1.116392457E+03	 2.968600098E+03
 1.116951693E+03	 2.987800049E+03
 1.117510870E+03	 2.974199951E+03
 1.118069988E+03	 2.968600098E+03
 1.118629048E+03	 2.992600098E+03
 1.119188050E+03	 2.984600098E+03
 1.119746993E+03	 2.978399902E+03
 1.120305877E+03	 2.985600098E+03
 1.120864703E+03	 2.971000000E+03
 1.121423471E+03	 3.000000000E+03
 1.121982180E+03	 2.991199951E+03
 1.122540831E+03	 2.997600098E+03
 1.123099423E+03	 3.013800049E+03
 1.123657957E+03	 3.002600098E+03
 1.124216432E+03	 3.020800049E+03
 1.124774849E+03	 3.012199951E+03
 1.125333207E+03	 3.019600098E+03
 1.125891507E+03	 3.015600098E+03
 1.126449748E+03	 3.027800049E+03
 1.127007931E+03	 3.045199951E+03
 1.127566056E+03	 3.061800049E+03
 1.128124122E+03	 3.051600098E+03
 1.128682130E+03	 3.076800049E+03
 1.129240079E+03	 3.075800049E+03
 1.129797970E+03	 3.081000000E+03
 1.130355802E+03	 3.053800049E+03
 1.130913576E+03	 3.071600098E+03
 1.131471292E+03	 3.050199951E+03
 1.132028949E+03	 3.085000000E+03
 1.132586548E+03	 3.101399902E+03
 1.133144089E+03	 3.096199951E+03
 1.133701571E+03	 3.091000000E+03
 1.134258995E+03	 3.062600098E+03
 1.134816360E+03	 3.145199951E+03
 1.135373667E+03	 3.092399902E+03
 1.135930916E+03	 3.092199951E+03
 1.136488106E+03	 3.074399902E+03
 1.137045238E+03	 3.115800049E+03
 1.137602311E+03	 3.104199951E+03
 1.138159327E+03	 3.082199951E+03
 1.138716284E+03	 3.154800049E+03
 1.139273182E+03	 3.115399902E+03
 1.139830022E+03	 3.138399902E+03
 1.140386804E+03	 3.123199951E+03
 1.140943528E+03	 3.136600098E+03
 1.141500193E+03	 3.160600098E+03
 1.142056800E+03	 3.178600098E+03
 1.142613349E+03	 3.138000000E+03
 1.143169839E+03	 3.162199951E+03
 1.143726271E+03	 3.141000000E+03
 1.144282645E+03	 3.142600098E+03
 1.144838960E+03	 3.157199951E+03
 1.145395218E+03	 3.155399902E+03
 1.145951417E+03	 3.188399902E+03
 1.146507557E+03	 3.189000000E+03
 1.147063640E+03	 3.177800049E+03
 1.147619664E+03	 3.171399902E+03
 1.148175630E+03	 3.215199951E+03
 1.148731537E+03	 3.181000000E+03
 1.149287386E+03	 3.189000000E+03
 1.149843178E+03	 3.191399902E+03
 1.150398910E+03	 3.173399902E+03
 1.150954585E+03	 3.166199951E+03
 1.151510201E+03	 3.199600098E+03
 1.152065760E+03	 3.191000000E+03
 1.152621260E+03	 3.219199951E+03
 1.153176701E+03	 3.193600098E+03
 1.153732085E+03	 3.235199951E+03
 1.154287410E+03	 3.205199951E+03
 1.154842677E+03	 3.238399902E+03
 1.155397886E+03	 3.224000000E+03
 1.155953037E+03	 3.213800049E+03
 1.156508129E+03	 3.220399902E+03
 1.157063164E+03	 3.236800049E+03
 1.157618140E+03	 3.229399902E+03
 1.158173058E+03	 3.228199951E+03
 1.158727917E+03	 3.243399902E+03
 1.159282719E+03	 3.224399902E+03
 1.159837463E+03	 3.271399902E+03
 1.160392148E+03	 3.231399902E+03
 1.160946775E+03	 3.229600098E+03
 1.161501344E+03	 3.253600098E+03
 1.162055855E+03	 3.255399902E+03
 1.162610308E+03	 3.221600098E+03
 1.163164702E+03	 3.256600098E+03
 1.163719039E+03	 3.261399902E+03
 1.164273317E+03	 3.245399902E+03
 1.164827537E+03	 3.256600098E+03
 1.165381699E+03	 3.263600098E+03
 1.165935803E+03	 3.265399902E+03
 1.166489849E+03	 3.260199951E+03
 1.167043837E+03	 3.263800049E+03
 1.167597767E+03	 3.240199951E+03
 1.168151638E+03	 3.256199951E+03
 1.168705452E+03	 3.263800049E+03
 1.169259207E+03	 3.275399902E+03
 1.169812904E+03	 3.278800049E+03
 1.170366544E+03	 3.270199951E+03
 1.170920125E+03	 3.308800049E+03
 1.171473648E+03	 3.260000000E+03
 1.172027113E+03	 3.300000000E+03
 1.172580520E+03	 3.275600098E+03
 1.173133869E+03	 3.295199951E+03
 1.173687160E+03	 3.273199951E+03
 1.174240393E+03	 3.283800049E+03
 1.174793567E+03	 3.300399902E+03
 1.175346684E+03	 3.313000000E+03
 1.175899743E+03	 3.306399902E+03
 1.176452744E+03	 3.279199951E+03
 1.177005686E+03	 3.304600098E+03
 1.177558571E+03	 3.309000000E+03
 1.178111398E+03	 3.323199951E+03
 1.178664167E+03	 3.310199951E+03
 1.179216877E+03	 3.329000000E+03
 1.179769530E+03	 3.291399902E+03
 1.180322125E+03	 3.297399902E+03
 1.180874661E+03	 3.327000000E+03
 1.181427140E+03	 3.309399902E+03
 1.181979561E+03	 3.341000000E+03
 1.182531924E+03	 3.319600098E+03
 1.183084228E+03	 3.314399902E+03
 1.183636475E+03	 3.344000000E+03
 1.184188664E+03	 3.330800049E+03
 1.184740795E+03	 3.333399902E+03
 1.185292868E+03	 3.333600098E+03
 1.185844883E+03	 3.358199951E+03
 1.186396840E+03	 3.325800049E+03
 1.186948739E+03	 3.340800049E+03
 1.187500581E+03	 3.354600098E+03
 1.188052364E+03	 3.333399902E+03
 1.188604089E+03	 3.358199951E+03
 1.189155757E+03	 3.353000000E+03
 1.189707366E+03	 3.349600098E+03
 1.190258918E+03	 3.377600098E+03
 1.190810412E+03	 3.370199951E+03
 1.191361847E+03	 3.355800049E+03
 1.191913225E+03	 3.366000000E+03
 1.192464545E+03	 3.374600098E+03
 1.193015808E+03	 3.376000000E+03
 1.193567012E+03	 3.381399902E+03
 1.194118158E+03	 3.372800049E+03
 1.194669247E+03	 3.383800049E+03
 1.195220278E+03	 3.380800049E+03
 1.195771250E+03	 3.418000000E+03
 1.196322165E+03	 3.400000000E+03
 1.196873022E+03	 3.390199951E+03
 1.197423822E+03	 3.403800049E+03
 1.197974563E+03	 3.381600098E+03
 1.198525247E+03	 3.418600098E+03
 1.199075872E+03	 3.421199951E+03
 1.199626440E+03	 3.417800049E+03
 1.200176950E+03	 3.427399902E+03
 1.200727403E+03	 3.400800049E+03
 1.201277797E+03	 3.420000000E+03
 1.201828134E+03	 3.425800049E+03
 1.202378412E+03	 3.417399902E+03
 1.202928633E+03	 3.446600098E+03
 1.203478797E+03	 3.436000000E+03
 1.204028902E+03	 3.433600098E+03
 1.204578950E+03	 3.451199951E+03
 1.205128940E+03	 3.445600098E+03
 1.205678872E+03	 3.431600098E+03
 1.206228746E+03	 3.450600098E+03
 1.206778562E+03	 3.475399902E+03
 1.207328321E+03	 3.471399902E+03
 1.207878022E+03	 3.466000000E+03
 1.208427665E+03	 3.481199951E+03
 1.208977251E+03	 3.476199951E+03
 1.209526779E+03	 3.455600098E+03
 1.210076249E+03	 3.462800049E+03
 1.210625661E+03	 3.487199951E+03
 1.211175015E+03	 3.497800049E+03
 1.211724312E+03	 3.460800049E+03
 1.212273551E+03	 3.471199951E+03
 1.212822733E+03	 3.472800049E+03
 1.213371856E+03	 3.499800049E+03
 1.213920922E+03	 3.492399902E+03
 1.214469930E+03	 3.506199951E+03
 1.215018881E+03	 3.501000000E+03
 1.215567774E+03	 3.471600098E+03
 1.216116609E+03	 3.539000000E+03
 1.216665386E+03	 3.522800049E+03
 1.217214106E+03	 3.495800049E+03
 1.217762768E+03	 3.557800049E+03
 1.218311372E+03	 3.513199951E+03
 1.218859919E+03	 3.520199951E+03
 1.219408408E+03	 3.537000000E+03
 1.219956840E+03	 3.543000000E+03
 1.220505213E+03	 3.544199951E+03
 1.221053530E+03	 3.555600098E+03
 1.221601788E+03	 3.533199951E+03
 1.222149989E+03	 3.547199951E+03
 1.222698132E+03	 3.543800049E+03
 1.223246218E+03	 3.571199951E+03
 1.223794245E+03	 3.559800049E+03
 1.224342216E+03	 3.538000000E+03
 1.224890128E+03	 3.530399902E+03
 1.225437983E+03	 3.565800049E+03
 1.225985781E+03	 3.571600098E+03
 1.226533521E+03	 3.554399902E+03
 1.227081203E+03	 3.589000000E+03
 1.227628828E+03	 3.580600098E+03
 1.228176395E+03	 3.618000000E+03
 1.228723904E+03	 3.573000000E+03
 1.229271356E+03	 3.605199951E+03
 1.229818750E+03	 3.609000000E+03
 1.230366087E+03	 3.616600098E+03
 1.230913366E+03	 3.607000000E+03
 1.231460588E+03	 3.586399902E+03
 1.232007752E+03	 3.630399902E+03
 1.232554858E+03	 3.613199951E+03
 1.233101907E+03	 3.632399902E+03
 1.233648898E+03	 3.613399902E+03
 1.234195832E+03	 3.629199951E+03
 1.234742709E+03	 3.616800049E+03
 1.235289527E+03	 3.625800049E+03
 1.235836289E+03	 3.623000000E+03
 1.236382992E+03	 3.639199951E+03
 1.236929639E+03	 3.627600098E+03
 1.237476227E+03	 3.620600098E+03
 1.238022758E+03	 3.612199951E+03
 1.238569232E+03	 3.660199951E+03
 1.239115648E+03	 3.674399902E+03
 1.239662007E+03	 3.636800049E+03
 1.240208308E+03	 3.690800049E+03
 1.240754552E+03	 3.640399902E+03
 1.241300738E+03	 3.664000000E+03
 1.241846867E+03	 3.663800049E+03
 1.242392938E+03	 3.678000000E+03
 1.242938952E+03	 3.672199951E+03
 1.243484908E+03	 3.685600098E+03
 1.244030807E+03	 3.682199951E+03
 1.244576648E+03	 3.670000000E+03
 1.245122432E+03	 3.676600098E+03
 1.245668159E+03	 3.676800049E+03
 1.246213828E+03	 3.694399902E+03
 1.246759440E+03	 3.706399902E+03
 1.247304994E+03	 3.683800049E+03
 1.247850490E+03	 3.680000000E+03
 1.248395930E+03	 3.679000000E+03
 1.248941312E+03	 3.716199951E+03
 1.249486636E+03	 3.734399902E+03
 1.250031903E+03	 3.696600098E+03
 1.250577113E+03	 3.702600098E+03
 1.251122265E+03	 3.696800049E+03
 1.251667360E+03	 3.712600098E+03
 1.252212398E+03	 3.724000000E+03
 1.252757378E+03	 3.728199951E+03
 1.253302301E+03	 3.702800049E+03
 1.253847166E+03	 3.713000000E+03
 1.254391974E+03	 3.723000000E+03
 1.254936725E+03	 3.776199951E+03
 1.255481418E+03	 3.736399902E+03
 1.256026054E+03	 3.718000000E+03
 1.256570632E+03	 3.735800049E+03
 1.257115154E+03	 3.720800049E+03
 1.257659617E+03	 3.737000000E+03
 1.258204024E+03	 3.737399902E+03
 1.258748373E+03	 3.765000000E+03
 1.259292665E+03	 3.749399902E+03
 1.259836900E+03	 3.780600098E+03
 1.260381077E+03	 3.784399902E+03
 1.260925197E+03	 3.773000000E+03
 1.261469259E+03	 3.778800049E+03
 1.262013264E+03	 3.805000000E+03
 1.262557212E+03	 3.769600098E+03
 1.263101103E+03	 3.799000000E+03
 1.263644936E+03	 3.813600098E+03
 1.264188712E+03	 3.774000000E+03
 1.264732431E+03	 3.787399902E+03
 1.265276093E+03	 3.797800049E+03
 1.265819697E+03	 3.782600098E+03
 1.266363244E+03	 3.787600098E+03
 1.266906734E+03	 3.785199951E+03
 1.267450166E+03	 3.790399902E+03
 1.267993541E+03	 3.817199951E+03
 1.268536859E+03	 3.811000000E+03
 1.269080120E+03	 3.803199951E+03
 1.269623323E+03	 3.798000000E+03
 1.270166469E+03	 3.794399902E+03
 1.270709558E+03	 3.824399902E+03
 1.271252590E+03	 3.811600098E+03
 1.271795564E+03	 3.821800049E+03
 1.272338481E+03	 3.798800049E+03
 1.272881341E+03	 3.825600098E+03
 1.273424144E+03	 3.821199951E+03
 1.273966890E+03	 3.819800049E+03
 1.274509578E+03	 3.813000000E+03
 1.275052209E+03	 3.833399902E+03
 1.275594783E+03	 3.842000000E+03
 1.276137300E+03	 3.835800049E+03
 1.276679760E+03	 3.855399902E+03
 1.277222162E+03	 3.863000000E+03
 1.277764507E+03	 3.861199951E+03
 1.278306796E+03	 3.878399902E+03
 1.278849026E+03	 3.862399902E+03
 1.279391200E+03	 3.927600098E+03
 1.279933317E+03	 3.956000000E+03
 1.280475376E+03	 4.033199951E+03
 1.281017378E+03	 4.224200195E+03
 1.281559324E+03	 4.564000000E+03
 1.282101212E+03	 4.932399902E+03
 1.282643042E+03	 4.986200195E+03
 1.283184816E+03	 4.572399902E+03
 1.283726533E+03	 4.244200195E+03
 1.284268192E+03	 4.090600098E+03
 1.284809795E+03	 3.998000000E+03
 1.285351340E+03	 3.983199951E+03
 1.285892828E+03	 3.941600098E+03
 1.286434259E+03	 3.915600098E+03
 1.286975633E+03	 3.918199951E+03
 1.287516950E+03	 3.919600098E+03
 1.288058209E+03	 3.915800049E+03
 1.288599412E+03	 3.919399902E+03
 1.289140558E+03	 3.912399902E+03
 1.289681646E+03	 3.920399902E+03
 1.290222677E+03	 3.922399902E+03
 1.290763652E+03	 3.912199951E+03
 1.291304569E+03	 3.868000000E+03
 1.291845429E+03	 3.902399902E+03
 1.292386232E+03	 3.885000000E+03
 1.292926979E+03	 3.903399902E+03
 1.293467668E+03	 3.914000000E+03
 1.294008300E+03	 3.924199951E+03
 1.294548875E+03	 3.930199951E+03
 1.295089392E+03	 3.937399902E+03
 1.295629853E+03	 3.920399902E+03
 1.296170257E+03	 3.925399902E+03
 1.296710604E+03	 3.962199951E+03
 1.297250894E+03	 3.921399902E+03
 1.297791127E+03	 3.952000000E+03
 1.298331303E+03	 3.935399902E+03
 1.298871422E+03	 3.923199951E+03
 1.299411483E+03	 3.983000000E+03
 1.299951488E+03	 3.956000000E+03
 1.300491436E+03	 3.943199951E+03
 1.301031327E+03	 3.998800049E+03
 1.301571161E+03	 3.948600098E+03
 1.302110938E+03	 3.974800049E+03
 1.302650658E+03	 3.951800049E+03
 1.303190321E+03	 3.971800049E+03
 1.303729927E+03	 3.968000000E+03
 1.304269476E+03	 3.978199951E+03
 1.304808968E+03	 3.967800049E+03
 1.305348403E+03	 3.969600098E+03
 1.305887781E+03	 3.953600098E+03
 1.306427102E+03	 3.945399902E+03
 1.306966367E+03	 3.975199951E+03
 1.307505574E+03	 4.001399902E+03
 1.308044725E+03	 3.976600098E+03
 1.308583818E+03	 3.995399902E+03
 1.309122855E+03	 4.000000000E+03
 1.309661835E+03	 4.007199951E+03
 1.310200757E+03	 4.005000000E+03
 1.310739623E+03	 4.017199951E+03
 1.311278432E+03	 3.990000000E+03
 1.311817185E+03	 3.951199951E+03
 1.312355880E+03	 4.007000000E+03
 1.312894518E+03	 4.005000000E+03
 1.313433100E+03	 4.010199951E+03
 1.313971624E+03	 4.013399902E+03
 1.314510092E+03	 4.048399902E+03
 1.315048503E+03	 4.028399902E+03
 1.315586857E+03	 4.043800049E+03
 1.316125154E+03	 4.031399902E+03
 1.316663394E+03	 4.041600098E+03
 1.317201578E+03	 4.075399902E+03
 1.317739704E+03	 4.046600098E+03
 1.318277774E+03	 4.044399902E+03
 1.318815787E+03	 4.017000000E+03
 1.319353743E+03	 4.048000000E+03
 1.319891642E+03	 4.027600098E+03
 1.320429485E+03	 4.062199951E+03
 1.320967270E+03	 4.053000000E+03
 1.321504999E+03	 4.028399902E+03
 1.322042671E+03	 4.045600098E+03
 1.322580286E+03	 4.085399902E+03
 1.323117845E+03	 4.059000000E+03
 1.323655346E+03	 4.065600098E+03
 1.324192791E+03	 4.073399902E+03
 1.324730179E+03	 4.064399902E+03
 1.325267511E+03	 4.080399902E+03
 1.325804785E+03	 4.078600098E+03
 1.326342003E+03	 4.106600098E+03
 1.326879164E+03	 4.080600098E+03
 1.327416268E+03	 4.105600098E+03
 1.327953315E+03	 4.090399902E+03
 1.328490306E+03	 4.102399902E+03
 1.329027240E+03	 4.095000000E+03
 1.329564117E+03	 4.133200195E+03
 1.330100937E+03	 4.089199951E+03
 1.330637701E+03	 4.121200195E+03
 1.331174408E+03	 4.103200195E+03
 1.331711058E+03	 4.082800049E+03
 1.332247652E+03	 4.063000000E+03
 1.332784188E+03	 4.090600098E+03
 1.333320668E+03	 4.120799805E+03
 1.333857092E+03	 4.139799805E+03
 1.334393458E+03	 4.113799805E+03
 1.334929768E+03	 4.122399902E+03
 1.335466022E+03	 4.085800049E+03
 1.336002218E+03	 4.134799805E+03
 1.336538358E+03	 4.140799805E+03
 1.337074441E+03	 4.112600098E+03
 1.337610468E+03	 4.106600098E+03
 1.338146438E+03	 4.123600098E+03
 1.338682351E+03	 4.169600098E+03
 1.339218207E+03	 4.169600098E+03
 1.339754007E+03	 4.149000000E+03
 1.340289750E+03	 4.124000000E+03
 1.340825437E+03	 4.127600098E+03
 1.341361067E+03	 4.134600098E+03
 1.341896640E+03	 4.173399902E+03
 1.342432156E+03	 4.120600098E+03
 1.342967616E+03	 4.143000000E+03
 1.343503020E+03	 4.162000000E+03
 1.344038366E+03	 4.179399902E+03
 1.344573657E+03	 4.140399902E+03
 1.345108890E+03	 4.158000000E+03
 1.345644067E+03	 4.187200195E+03
 1.346179187E+03	 4.174799805E+03
 1.346714251E+03	 4.163799805E+03
 1.347249258E+03	 4.155399902E+03
 1.347784208E+03	 4.145799805E+03
 1.348319102E+03	 4.176600098E+03
 1.348853939E+03	 4.152000000E+03
 1.349388720E+03	 4.146799805E+03
 1.349923444E+03	 4.148399902E+03
 1.350458112E+03	 4.181799805E+03
 1.350992723E+03	 4.180799805E+03
 1.351527277E+03	 4.185200195E+03
 1.352061775E+03	 4.184600098E+03
 1.352596216E+03	 4.152399902E+03
 1.353130601E+03	 4.140200195E+03
 1.353664929E+03	 4.182200195E+03
 1.354199201E+03	 4.166200195E+03
 1.354733416E+03	 4.178799805E+03
 1.355267575E+03	 4.195399902E+03
 1.355801677E+03	 4.178200195E+03
 1.356335722E+03	 4.189000000E+03
 1.356869711E+03	 4.189399902E+03
 1.357403644E+03	 4.167799805E+03
 1.357937520E+03	 4.187600098E+03
 1.358471340E+03	 4.182000000E+03
 1.359005103E+03	 4.180600098E+03
 1.359538809E+03	 4.179200195E+03
 1.360072459E+03	 4.214799805E+03
 1.360606053E+03	 4.191000000E+03
 1.361139590E+03	 4.223600098E+03
 1.361673070E+03	 4.213799805E+03
 1.362206494E+03	 4.229399902E+03
 1.362739862E+03	 4.209200195E+03
 1.363273173E+03	 4.263399902E+03
 1.363806428E+03	 4.219600098E+03
 1.364339626E+03	 4.238000000E+03
 1.364872768E+03	 4.222000000E+03
 1.365405853E+03	 4.189200195E+03
 1.365938882E+03	 4.241200195E+03
 1.366471855E+03	 4.246000000E+03
 1.367004771E+03	 4.223600098E+03
 1.367537630E+03	 4.213799805E+03
 1.368070434E+03	 4.239000000E+03
 1.368603180E+03	 4.218399902E+03
 1.369135871E+03	 4.262399902E+03
 1.369668505E+03	 4.253799805E+03
 1.370201082E+03	 4.259600098E+03
 1.370733603E+03	 4.230399902E+03
 1.371266068E+03	 4.253200195E+03
 1.371798476E+03	 4.223000000E+03
 1.372330828E+03	 4.243200195E+03
 1.372863124E+03	 4.277000000E+03
 1.373395363E+03	 4.265600098E+03
 1.373927546E+03	 4.282200195E+03
 1.374459672E+03	 4.246399902E+03
 1.374991743E+03	 4.261200195E+03
 1.375523756E+03	 4.272000000E+03
 1.376055714E+03	 4.282600098E+03
 1.376587615E+03	 4.256399902E+03
 1.377119459E+03	 4.278000000E+03
 1.377651248E+03	 4.284200195E+03
 1.378182980E+03	 4.320799805E+03
 1.378714655E+03	 4.301399902E+03
 1.379246274E+03	 4.326600098E+03
 1.379777837E+03	 4.282000000E+03
 1.380309344E+03	 4.254399902E+03
 1.380840794E+03	 4.304399902E+03
 1.381372188E+03	 4.326600098E+03
 1.381903526E+03	 4.302000000E+03
 1.382434808E+03	 4.335799805E+03
 1.382966033E+03	 4.338799805E+03
 1.383497201E+03	 4.377600098E+03
 1.384028314E+03	 4.441799805E+03
 1.384559370E+03	 4.472799805E+03
 1.385090370E+03	 4.614799805E+03
 1.385621314E+03	 4.864799805E+03
 1.386152201E+03	 5.322399902E+03
 1.386683032E+03	 6.117600098E+03
 1.387213807E+03	 6.482600098E+03
 1.387744526E+03	 5.916799805E+03
 1.388275188E+03	 5.183399902E+03
 1.388805794E+03	 4.767200195E+03
 1.389336344E+03	 4.583799805E+03
 1.389866838E+03	 4.497600098E+03
 1.390397275E+03	 4.427799805E+03
 1.390927656E+03	 4.393600098E+03
 1.391457981E+03	 4.385799805E+03
 1.391988250E+03	 4.383200195E+03
 1.392518462E+03	 4.386000000E+03
 1.393048619E+03	 4.336000000E+03
 1.393578719E+03	 4.358399902E+03
 1.394108762E+03	 4.341600098E+03
 1.394638750E+03	 4.366600098E+03
 1.395168682E+03	 4.334799805E+03
 1.395698557E+03	 4.395200195E+03
 1.396228376E+03	 4.348000000E+03
 1.396758139E+03	 4.353799805E+03
 1.397287845E+03	 4.358399902E+03
 1.397817496E+03	 4.368000000E+03
 1.398347090E+03	 4.395399902E+03
 1.398876628E+03	 4.399600098E+03
 1.399406110E+03	 4.360600098E+03
 1.399935536E+03	 4.385000000E+03
 1.400464906E+03	 4.385000000E+03
 1.400994219E+03	 4.371799805E+03
 1.401523477E+03	 4.384200195E+03
 1.402052678E+03	 4.392000000E+03
 1.402581823E+03	 4.419799805E+03
 1.403110912E+03	 4.413399902E+03
 1.403639945E+03	 4.414000000E+03
 1.404168922E+03	 4.403000000E+03
 1.404697842E+03	 4.444399902E+03
 1.405226707E+03	 4.443399902E+03
 1.405755515E+03	 4.423000000E+03
 1.406284267E+03	 4.445000000E+03
 1.406812964E+03	 4.459799805E+03
 1.407341604E+03	 4.440399902E+03
 1.407870188E+03	 4.444399902E+03
 1.408398716E+03	 4.449799805E+03
 1.408927187E+03	 4.480799805E+03
 1.409455603E+03	 4.491799805E+03
 1.409983963E+03	 4.455799805E+03
 1.410512266E+03	 4.471799805E+03
 1.411040514E+03	 4.481399902E+03
 1.411568705E+03	 4.452600098E+03
 1.412096841E+03	 4.453399902E+03
 1.412624920E+03	 4.400399902E+03
 1.413152944E+03	 4.405799805E+03
 1.413680911E+03	 4.421000000E+03
 1.414208822E+03	 4.417399902E+03
 1.414736677E+03	 4.423399902E+03
 1.415264476E+03	 4.422600098E+03
 1.415792220E+03	 4.380000000E+03
 1.416319907E+03	 4.424600098E+03
 1.416847538E+03	 4.441200195E+03
 1.417375113E+03	 4.440200195E+03
 1.417902632E+03	 4.414200195E+03
 1.418430095E+03	 4.496600098E+03
 1.418957502E+03	 4.426399902E+03
 1.419484853E+03	 4.474200195E+03
 1.420012148E+03	 4.432200195E+03
 1.420539387E+03	 4.450399902E+03
 1.421066570E+03	 4.406600098E+03
 1.421593698E+03	 4.427399902E+03
 1.422120769E+03	 4.480600098E+03
 1.422647784E+03	 4.457000000E+03
 1.423174743E+03	 4.490799805E+03
 1.423701647E+03	 4.461600098E+03
 1.424228494E+03	 4.468000000E+03
 1.424755285E+03	 4.452399902E+03
 1.425282021E+03	 4.464799805E+03
 1.425808700E+03	 4.450200195E+03
 1.426335324E+03	 4.514000000E+03
 1.426861891E+03	 4.479399902E+03
 1.427388403E+03	 4.484799805E+03
 1.427914859E+03	 4.501200195E+03
 1.428441259E+03	 4.490600098E+03
 1.428967602E+03	 4.463399902E+03
 1.429493890E+03	 4.455600098E+03
 1.430020123E+03	 4.481399902E+03
 1.430546299E+03	 4.442200195E+03
 1.431072419E+03	 4.485200195E+03
 1.431598483E+03	 4.494799805E+03
 1.432124492E+03	 4.461000000E+03
 1.432650445E+03	 4.474000000E+03
 1.433176341E+03	 4.471200195E+03
 1.433702182E+03	 4.531000000E+03
 1.434227967E+03	 4.497000000E+03
 1.434753696E+03	 4.479000000E+03
 1.435279370E+03	 4.518200195E+03
 1.435804987E+03	 4.493200195E+03
 1.436330549E+03	 4.505600098E+03
 1.436856054E+03	 4.489799805E+03
 1.437381504E+03	 4.485200195E+03
 1.437906898E+03	 4.477399902E+03
 1.438432236E+03	 4.523200195E+03
 1.438957519E+03	 4.471200195E+03
 1.439482745E+03	 4.502799805E+03
 1.440007916E+03	 4.477399902E+03
 1.440533031E+03	 4.541200195E+03
 1.441058090E+03	 4.501399902E+03
 1.441583093E+03	 4.511000000E+03
 1.442108041E+03	 4.493799805E+03
 1.442632932E+03	 4.496399902E+03
 1.443157768E+03	 4.513799805E+03
 1.443682548E+03	 4.512600098E+03
 1.444207272E+03	 4.515200195E+03
 1.444731941E+03	 4.561399902E+03
 1.445256554E+03	 4.549000000E+03
 1.445781111E+03	 4.529399902E+03
 1.446305612E+03	 4.564799805E+03
 1.446830057E+03	 4.547799805E+03
 1.447354447E+03	 4.567600098E+03
 1.447878781E+03	 4.569200195E+03
 1.448403059E+03	 4.538200195E+03
 1.448927281E+03	 4.527600098E+03
 1.449451448E+03	 4.523399902E+03
 1.449975559E+03	 4.560600098E+03
 1.450499614E+03	 4.507000000E+03
 1.451023613E+03	 4.510200195E+03
 1.451547557E+03	 4.531200195E+03
 1.452071445E+03	 4.535200195E+03
 1.452595277E+03	 4.506000000E+03
 1.453119054E+03	 4.537600098E+03
 1.453642774E+03	 4.560000000E+03
 1.454166440E+03	 4.573399902E+03
 1.454690049E+03	 4.511399902E+03
 1.455213603E+03	 4.565399902E+03
 1.455737101E+03	 4.555399902E+03
 1.456260543E+03	 4.550600098E+03
 1.456783930E+03	 4.562600098E+03
 1.457307261E+03	 4.580000000E+03
 1.457830536E+03	 4.538000000E+03
 1.458353756E+03	 4.545000000E+03
 1.458876920E+03	 4.555799805E+03
 1.459400028E+03	 4.534600098E+03
 1.459923081E+03	 4.545399902E+03
 1.460446078E+03	 4.553799805E+03
 1.460969019E+03	 4.532000000E+03
 1.461491905E+03	 4.568399902E+03
 1.462014735E+03	 4.599799805E+03
 1.462537509E+03	 4.532399902E+03
 1.463060228E+03	 4.549600098E+03
 1.463582891E+03	 4.550200195E+03
 1.464105499E+03	 4.589200195E+03
 1.464628051E+03	 4.554200195E+03
 1.465150547E+03	 4.566799805E+03
 1.465672988E+03	 4.580200195E+03
 1.466195373E+03	 4.586799805E+03
 1.466717702E+03	 4.582000000E+03
 1.467239976E+03	 4.563600098E+03
 1.467762195E+03	 4.565799805E+03
 1.468284357E+03	 4.579200195E+03
 1.468806464E+03	 4.564600098E+03
 1.469328516E+03	 4.577200195E+03
 1.469850512E+03	 4.606399902E+03
 1.470372452E+03	 4.544399902E+03
 1.470894337E+03	 4.574799805E+03
 1.471416167E+03	 4.550200195E+03
 1.471937940E+03	 4.594600098E+03
 1.472459659E+03	 4.609200195E+03
 1.472981321E+03	 4.585799805E+03
 1.473502928E+03	 4.589399902E+03
 1.474024480E+03	 4.605399902E+03
 1.474545976E+03	 4.625000000E+03
 1.475067416E+03	 4.569600098E+03
 1.475588801E+03	 4.596200195E+03
 1.476110131E+03	 4.586399902E+03
 1.476631405E+03	 4.599200195E+03
 1.477152623E+03	 4.600000000E+03
 1.477673786E+03	 4.613000000E+03
 1.478194894E+03	 4.592399902E+03
 1.478715946E+03	 4.607399902E+03
 1.479236942E+03	 4.602799805E+03
 1.479757883E+03	 4.587399902E+03
 1.480278768E+03	 4.612399902E+03
 1.480799598E+03	 4.611799805E+03
 1.481320373E+03	 4.613600098E+03
 1.481841092E+03	 4.613799805E+03
 1.482361755E+03	 4.594600098E+03
 1.482882363E+03	 4.628000000E+03
 1.483402916E+03	 4.587799805E+03
 1.483923413E+03	 4.619200195E+03
 1.484443855E+03	 4.646000000E+03
 1.484964241E+03	 4.582000000E+03
 1.485484572E+03	 4.613000000E+03
 1.486004847E+03	 4.582600098E+03
 1.486525067E+03	 4.589600098E+03
 1.487045232E+03	 4.603000000E+03
 1.487565341E+03	 4.634000000E+03
 1.488085395E+03	 4.591200195E+03
 1.488605393E+03	 4.584200195E+03
 1.489125336E+03	 4.589799805E+03
 1.489645223E+03	 4.608799805E+03
 1.490165055E+03	 4.606799805E+03
 1.490684832E+03	 4.611200195E+03
 1.491204553E+03	 4.597799805E+03
 1.491724219E+03	 4.637200195E+03
 1.492243829E+03	 4.624200195E+03
 1.492763385E+03	 4.660799805E+03
 1.493282884E+03	 4.624399902E+03
 1.493802329E+03	 4.619000000E+03
 1.494321718E+03	 4.604000000E+03
 1.494841051E+03	 4.613200195E+03
 1.495360329E+03	 4.642399902E+03
 1.495879552E+03	 4.592399902E+03
 1.496398720E+03	 4.600399902E+03
 1.496917832E+03	 4.635600098E+03
 1.497436889E+03	 4.644399902E+03
 1.497955890E+03	 4.603600098E+03
 1.498474837E+03	 4.637799805E+03
 1.498993727E+03	 4.643600098E+03
 1.499512563E+03	 4.626399902E+03
 1.500031343E+03	 4.602799805E+03
 1.500550068E+03	 4.645000000E+03
 1.501068738E+03	 4.650000000E+03
 1.501587352E+03	 4.620000000E+03
 1.502105911E+03	 4.668799805E+03
 1.502624414E+03	 4.655799805E+03
 1.503142863E+03	 4.673200195E+03
 1.503661256E+03	 4.635600098E+03
 1.504179594E+03	 4.686000000E+03
 1.504697876E+03	 4.653200195E+03
 1.505216103E+03	 4.672600098E+03
 1.505734275E+03	 4.668399902E+03
 1.506252392E+03	 4.621000000E+03
 1.506770454E+03	 4.623600098E+03
 1.507288460E+03	 4.644000000E+03
 1.507806411E+03	 4.644600098E+03
 1.508324306E+03	 4.658000000E+03
 1.508842147E+03	 4.650399902E+03
 1.509359932E+03	 4.644200195E+03
 1.509877662E+03	 4.663399902E+03
 1.510395337E+03	 4.638000000E+03
 1.510912956E+03	 4.667799805E+03
 1.511430520E+03	 4.626399902E+03
 1.511948029E+03	 4.670399902E+03
 1.512465483E+03	 4.655000000E+03
 1.512982882E+03	 4.698399902E+03
 1.513500225E+03	 4.663600098E+03
 1.514017513E+03	 4.651399902E+03
 1.514534746E+03	 4.647200195E+03
 1.515051924E+03	 4.678200195E+03
 1.515569047E+03	 4.637799805E+03
 1.516086114E+03	 4.640399902E+03
 1.516603126E+03	 4.677799805E+03
 1.517120084E+03	 4.641000000E+03
 1.517636985E+03	 4.681200195E+03
 1.518153832E+03	 4.644600098E+03
 1.518670624E+03	 4.667600098E+03
 1.519187360E+03	 4.641399902E+03
 1.519704041E+03	 4.646399902E+03
 1.520220667E+03	 4.658799805E+03
 1.520737238E+03	 4.663600098E+03
 1.521253754E+03	 4.643399902E+03
 1.521770215E+03	 4.646200195E+03
 1.522286620E+03	 4.663799805E+03
 1.522802971E+03	 4.665200195E+03
 1.523319266E+03	 4.656600098E+03
 1.523835506E+03	 4.678200195E+03
 1.524351691E+03	 4.661200195E+03
 1.524867821E+03	 4.654399902E+03
 1.525383896E+03	 4.631200195E+03
 1.525899916E+03	 4.647600098E+03
 1.526415881E+03	 4.647200195E+03
 1.526931790E+03	 4.658799805E+03
 1.527447645E+03	 4.628399902E+03
 1.527963444E+03	 4.624799805E+03
 1.528479188E+03	 4.626799805E+03
 1.528994877E+03	 4.659200195E+03
 1.529510512E+03	 4.641200195E+03
 1.530026091E+03	 4.635200195E+03
 1.530541615E+03	 4.657799805E+03
 1.531057084E+03	 4.678799805E+03
 1.531572497E+03	 4.669200195E+03
 1.532087856E+03	 4.657600098E+03
 1.532603160E+03	 4.650399902E+03
 1.533118409E+03	 4.625000000E+03
 1.533633603E+03	 4.629600098E+03
 1.534148741E+03	 4.615799805E+03
 1.534663825E+03	 4.653000000E+03
 1.535178853E+03	 4.624799805E+03
 1.535693827E+03	 4.676399902E+03
 1.536208746E+03	 4.630799805E+03
 1.536723609E+03	 4.618200195E+03
 1.537238418E+03	 4.625600098E+03
 1.537753171E+03	 4.614399902E+03
 1.538267870E+03	 4.625799805E+03
 1.538782514E+03	 4.639399902E+03
 1.539297102E+03	 4.613799805E+03
 1.539811636E+03	 4.648000000E+03
 1.540326114E+03	 4.642399902E+03
 1.540840538E+03	 4.675200195E+03
 1.541354907E+03	 4.649000000E+03
 1.541869220E+03	 4.633600098E+03
 1.542383479E+03	 4.640000000E+03
 1.542897683E+03	 4.619600098E+03
 1.543411832E+03	 4.619200195E+03
 1.543925926E+03	 4.653000000E+03
 1.544439964E+03	 4.677799805E+03
 1.544953948E+03	 4.662600098E+03
 1.545467877E+03	 4.665600098E+03
 1.545981752E+03	 4.635600098E+03
 1.546495571E+03	 4.631200195E+03
 1.547009335E+03	 4.660600098E+03
 1.547523044E+03	 4.653399902E+03
 1.548036699E+03	 4.639000000E+03
 1.548550298E+03	 4.667000000E+03
 1.549063843E+03	 4.636200195E+03
 1.549577333E+03	 4.671799805E+03
 1.550090767E+03	 4.649799805E+03
 1.550604147E+03	 4.669799805E+03
 1.551117472E+03	 4.681200195E+03
 1.551630742E+03	 4.663000000E+03
 1.552143958E+03	 4.666799805E+03
 1.552657118E+03	 4.691600098E+03
 1.553170224E+03	 4.654000000E+03
 1.553683274E+03	 4.671600098E+03
 1.554196270E+03	 4.657799805E+03
 1.554709211E+03	 4.639799805E+03
 1.555222097E+03	 4.675799805E+03
 1.555734928E+03	 4.671000000E+03
 1.556247705E+03	 4.651399902E+03
 1.556760426E+03	 4.657000000E+03
 1.557273093E+03	 4.690200195E+03
 1.557785705E+03	 4.661000000E+03
 1.558298262E+03	 4.647399902E+03
 1.558810764E+03	 4.707600098E+03
 1.559323211E+03	 4.695000000E+03
 1.559835604E+03	 4.668000000E+03
 1.560347941E+03	 4.668600098E+03
 1.560860224E+03	 4.655399902E+03
 1.561372452E+03	 4.677600098E+03
 1.561884626E+03	 4.682799805E+03
 1.562396744E+03	 4.684200195E+03
 1.562908808E+03	 4.655000000E+03
 1.563420817E+03	 4.666399902E+03
 1.563932771E+03	 4.677600098E+03
 1.564444671E+03	 4.722799805E+03
 1.564956515E+03	 4.676399902E+03
 1.565468305E+03	 4.692799805E+03
 1.565980040E+03	 4.652600098E+03
 1.566491721E+03	 4.693000000E+03
 1.567003346E+03	 4.689000000E+03
 1.567514917E+03	 4.677399902E+03
 1.568026433E+03	 4.688600098E+03
 1.568537894E+03	 4.670399902E+03
 1.569049301E+03	 4.682600098E+03
 1.569560653E+03	 4.679399902E+03
 1.570071950E+03	 4.677200195E+03
 1.570583192E+03	 4.702200195E+03
 1.571094380E+03	 4.683200195E+03
 1.571605513E+03	 4.698799805E+03
 1.572116591E+03	 4.703000000E+03
 1.572627615E+03	 4.702799805E+03
 1.573138584E+03	 4.708799805E+03
 1.573649498E+03	 4.721200195E+03
 1.574160357E+03	 4.687600098E+03
 1.574671162E+03	 4.724200195E+03
 1.575181912E+03	 4.693799805E+03
 1.575692608E+03	 4.732399902E+03
 1.576203248E+03	 4.740399902E+03
 1.576713834E+03	 4.677799805E+03
 1.577224366E+03	 4.722000000E+03
 1.577734843E+03	 4.703399902E+03
 1.578245265E+03	 4.726799805E+03
 1.578755632E+03	 4.690799805E+03
 1.579265945E+03	 4.763799805E+03
 1.579776203E+03	 4.711600098E+03
 1.580286406E+03	 4.706799805E+03
 1.580796555E+03	 4.712600098E+03
 1.581306649E+03	 4.728200195E+03
 1.581816689E+03	 4.729200195E+03
 1.582326674E+03	 4.724799805E+03
 1.582836604E+03	 4.728000000E+03
 1.583346480E+03	 4.729600098E+03
 1.583856301E+03	 4.725200195E+03
 1.584366067E+03	 4.743200195E+03
 1.584875779E+03	 4.762600098E+03
 1.585385437E+03	 4.727399902E+03
 1.585895039E+03	 4.742399902E+03
 1.586404587E+03	 4.720600098E+03
 1.586914081E+03	 4.740799805E+03
 1.587423520E+03	 4.742799805E+03
 1.587932904E+03	 4.735399902E+03
 1.588442234E+03	 4.762600098E+03
 1.588951509E+03	 4.749799805E+03
 1.589460730E+03	 4.734600098E+03
 1.589969896E+03	 4.738200195E+03
 1.590479007E+03	 4.724399902E+03
 1.590988064E+03	 4.761399902E+03
 1.591497067E+03	 4.727000000E+03
 1.592006015E+03	 4.765799805E+03
