 1.042057870E+03	 4.290000000E+03
 1.042624871E+03	 4.306000000E+03
 1.043191812E+03	 4.312799805E+03
 1.043758695E+03	 4.287399902E+03
 1.044325518E+03	 4.297200195E+03
 1.044892283E+03	 4.310000000E+03
 1.045458988E+03	 4.306000000E+03
 1.046025634E+03	 4.330000000E+03
 1.046592221E+03	 4.305600098E+03
 1.047158749E+03	 4.320000000E+03
 1.047725218E+03	 4.349799805E+03
 1.048291628E+03	 4.275000000E+03
 1.048857978E+03	 4.324600098E+03
 1.049424270E+03	 4.318399902E+03
 1.049990502E+03	 4.368000000E+03
 1.050556676E+03	 4.367200195E+03
 1.051122790E+03	 4.326799805E+03
 1.051688845E+03	 4.373600098E+03
 1.052254841E+03	 4.363200195E+03
 1.052820778E+03	 4.377399902E+03
 1.053386657E+03	 4.333600098E+03
 1.053952476E+03	 4.334399902E+03
 1.054518236E+03	 4.337000000E+03
 1.055083936E+03	 4.334000000E+03
 1.055649578E+03	 4.375799805E+03
 1.056215161E+03	 4.345399902E+03
 1.056780685E+03	 4.353000000E+03
 1.057346150E+03	 4.404000000E+03
 1.057911556E+03	 4.379600098E+03
 1.058476903E+03	 4.416600098E+03
 1.059042191E+03	 4.396200195E+03
 1.059607419E+03	 4.394399902E+03
 1.060172589E+03	 4.399200195E+03
 1.060737700E+03	 4.414600098E+03
 1.061302752E+03	 4.401799805E+03
 1.061867745E+03	 4.431399902E+03
 1.062432679E+03	 4.406799805E+03
 1.062997554E+03	 4.411200195E+03
 1.063562370E+03	 4.437000000E+03
 1.064127127E+03	 4.433399902E+03
 1.064691825E+03	 4.424799805E+03
 1.065256464E+03	 4.453000000E+03
 1.065821044E+03	 4.425600098E+03
 1.066385565E+03	 4.433200195E+03
 1.066950027E+03	 4.459399902E+03
 1.067514431E+03	 4.456799805E+03
 1.068078775E+03	 4.461000000E+03
 1.068643061E+03	 4.495399902E+03
 1.069207287E+03	 4.432200195E+03
 1.069771455E+03	 4.477200195E+03
 1.070335564E+03	 4.460399902E+03
 1.070899613E+03	 4.480600098E+03
 1.071463604E+03	 4.518000000E+03
 1.072027536E+03	 4.455200195E+03
 1.072591409E+03	 4.528600098E+03
 1.073155224E+03	 4.490399902E+03
 1.073718979E+03	 4.469399902E+03
 1.074282676E+03	 4.544600098E+03
 1.074846313E+03	 4.495000000E+03
 1.075409892E+03	 4.518399902E+03
 1.075973412E+03	 4.513000000E+03
 1.076536873E+03	 4.513200195E+03
 1.077100275E+03	 4.556600098E+03
 1.077663618E+03	 4.533000000E+03
 1.078226903E+03	 4.557600098E+03
 1.078790129E+03	 4.557399902E+03
 1.079353295E+03	 4.545000000E+03
 1.079916403E+03	 4.583399902E+03
 1.080479453E+03	 4.554399902E+03
 1.081042443E+03	 4.568399902E+03
 1.081605374E+03	 4.569399902E+03
 1.082168247E+03	 4.570399902E+03
 1.082731061E+03	 4.555000000E+03
 1.083293816E+03	 4.587399902E+03
 1.083856512E+03	 4.574200195E+03
 1.084419150E+03	 4.602799805E+03
 1.084981729E+03	 4.593000000E+03
 1.085544249E+03	 4.559799805E+03
 1.086106710E+03	 4.595000000E+03
 1.086669112E+03	 4.616600098E+03
 1.087231456E+03	 4.604200195E+03
 1.087793741E+03	 4.653200195E+03
 1.088355967E+03	 4.564600098E+03
 1.088918134E+03	 4.656399902E+03
 1.089480243E+03	 4.625799805E+03
 1.090042293E+03	 4.627600098E+03
 1.090604284E+03	 4.657399902E+03
 1.091166216E+03	 4.630600098E+03
 1.091728090E+03	 4.648000000E+03
 1.092289905E+03	 4.672799805E+03
 1.092851661E+03	 4.654799805E+03
 1.093413358E+03	 4.695000000E+03
 1.093974997E+03	 4.658000000E+03
 1.094536577E+03	 4.638799805E+03
 1.095098098E+03	 4.670200195E+03
 1.095659561E+03	 4.708600098E+03
 1.096220965E+03	 4.693399902E+03
 1.096782310E+03	 4.698000000E+03
 1.097343597E+03	 4.659600098E+03
 1.097904825E+03	 4.699600098E+03
 1.098465994E+03	 4.731200195E+03
 1.099027105E+03	 4.707600098E+03
 1.099588157E+03	 4.712000000E+03
 1.100149150E+03	 4.748399902E+03
 1.100710084E+03	 4.740600098E+03
 1.101270960E+03	 4.737200195E+03
 1.101831778E+03	 4.779600098E+03
 1.102392536E+03	 4.763600098E+03
 1.102953236E+03	 4.793399902E+03
 1.103513878E+03	 4.771000000E+03
 1.104074460E+03	 4.766799805E+03
 1.104634984E+03	 4.797799805E+03
 1.105195450E+03	 4.781399902E+03
 1.105755857E+03	 4.781200195E+03
 1.106316205E+03	 4.782399902E+03
 1.106876495E+03	 4.816200195E+03
 1.107436726E+03	 4.830200195E+03
 1.107996898E+03	 4.833600098E+03
 1.108557012E+03	 4.825799805E+03
 1.109117067E+03	 4.832600098E+03
 1.109677064E+03	 4.851600098E+03
 1.110237002E+03	 4.850600098E+03
 1.110796882E+03	 4.827600098E+03
 1.111356703E+03	 4.860200195E+03
 1.111916465E+03	 4.872399902E+03
 1.112476169E+03	 4.863000000E+03
 1.113035814E+03	 4.898799805E+03
 1.113595401E+03	 4.871200195E+03
 1.114154929E+03	 4.916799805E+03
 1.114714399E+03	 4.896399902E+03
 1.115273810E+03	 4.952399902E+03
 1.115833163E+03	 4.900200195E+03
 1.116392457E+03	 4.925399902E+03
 1.116951693E+03	 4.920799805E+03
 1.117510870E+03	 4.965000000E+03
 1.118069988E+03	 4.931000000E+03
 1.118629048E+03	 4.970600098E+03
 1.119188050E+03	 4.958200195E+03
 1.119746993E+03	 4.973200195E+03
 1.120305877E+03	 4.988600098E+03
 1.120864703E+03	 5.016000000E+03
 1.121423471E+03	 4.980200195E+03
 1.121982180E+03	 5.002000000E+03
 1.122540831E+03	 5.001200195E+03
 1.123099423E+03	 5.006600098E+03
 1.123657957E+03	 4.998600098E+03
 1.124216432E+03	 5.021200195E+03
 1.124774849E+03	 5.048799805E+03
 1.125333207E+03	 5.045399902E+03
 1.125891507E+03	 5.048000000E+03
 1.126449748E+03	 5.074600098E+03
 1.127007931E+03	 5.055600098E+03
 1.127566056E+03	 5.069000000E+03
 1.128124122E+03	 5.065799805E+03
 1.128682130E+03	 5.061000000E+03
 1.129240079E+03	 5.052200195E+03
 1.129797970E+03	 5.122799805E+03
 1.130355802E+03	 5.114600098E+03
 1.130913576E+03	 5.118799805E+03
 1.131471292E+03	 5.100399902E+03
 1.132028949E+03	 5.140399902E+03
 1.132586548E+03	 5.139399902E+03
 1.133144089E+03	 5.139799805E+03
 1.133701571E+03	 5.188200195E+03
 1.134258995E+03	 5.175200195E+03
 1.134816360E+03	 5.204000000E+03
 1.135373667E+03	 5.194000000E+03
 1.135930916E+03	 5.164399902E+03
 1.136488106E+03	 5.188799805E+03
 1.137045238E+03	 5.217200195E+03
 1.137602311E+03	 5.220200195E+03
 1.138159327E+03	 5.217000000E+03
 1.138716284E+03	 5.251600098E+03
 1.139273182E+03	 5.205799805E+03
 1.139830022E+03	 5.222799805E+03
 1.140386804E+03	 5.262799805E+03
 1.140943528E+03	 5.233000000E+03
 1.141500193E+03	 5.241200195E+03
 1.142056800E+03	 5.281000000E+03
 1.142613349E+03	 5.253399902E+03
 1.143169839E+03	 5.273200195E+03
 1.143726271E+03	 5.301600098E+03
 1.144282645E+03	 5.285200195E+03
 1.144838960E+03	 5.302000000E+03
 1.145395218E+03	 5.305399902E+03
 1.145951417E+03	 5.306000000E+03
 1.146507557E+03	 5.312600098E+03
 1.147063640E+03	 5.328600098E+03
 1.147619664E+03	 5.325200195E+03
 1.148175630E+03	 5.346399902E+03
 1.148731537E+03	 5.338799805E+03
 1.149287386E+03	 5.354399902E+03
 1.149843178E+03	 5.344799805E+03
 1.150398910E+03	 5.373000000E+03
 1.150954585E+03	 5.370000000E+03
 1.151510201E+03	 5.381000000E+03
 1.152065760E+03	 5.387600098E+03
 1.152621260E+03	 5.384000000E+03
 1.153176701E+03	 5.398000000E+03
 1.153732085E+03	 5.398799805E+03
 1.154287410E+03	 5.413399902E+03
 1.154842677E+03	 5.414000000E+03
 1.155397886E+03	 5.400000000E+03
 1.155953037E+03	 5.400600098E+03
 1.156508129E+03	 5.407200195E+03
 1.157063164E+03	 5.379000000E+03
 1.157618140E+03	 5.409799805E+03
 1.158173058E+03	 5.439399902E+03
 1.158727917E+03	 5.463000000E+03
 1.159282719E+03	 5.422000000E+03
 1.159837463E+03	 5.447000000E+03
 1.160392148E+03	 5.468200195E+03
 1.160946775E+03	 5.449399902E+03
 1.161501344E+03	 5.485399902E+03
 1.162055855E+03	 5.450600098E+03
 1.162610308E+03	 5.476000000E+03
 1.163164702E+03	 5.456399902E+03
 1.163719039E+03	 5.478600098E+03
 1.164273317E+03	 5.478799805E+03
 1.164827537E+03	 5.492600098E+03
 1.165381699E+03	 5.470600098E+03
 1.165935803E+03	 5.496200195E+03
 1.166489849E+03	 5.547799805E+03
 1.167043837E+03	 5.518799805E+03
 1.167597767E+03	 5.506399902E+03
 1.168151638E+03	 5.503799805E+03
 1.168705452E+03	 5.554799805E+03
 1.169259207E+03	 5.508399902E+03
 1.169812904E+03	 5.575399902E+03
 1.170366544E+03	 5.546399902E+03
 1.170920125E+03	 5.524600098E+03
 1.171473648E+03	 5.515000000E+03
 1.172027113E+03	 5.522000000E+03
 1.172580520E+03	 5.539200195E+03
 1.173133869E+03	 5.563000000E+03
 1.173687160E+03	 5.567799805E+03
 1.174240393E+03	 5.569600098E+03
 1.174793567E+03	 5.597799805E+03
 1.175346684E+03	 5.567399902E+03
 1.175899743E+03	 5.550399902E+03
 1.176452744E+03	 5.594200195E+03
 1.177005686E+03	 5.588000000E+03
 1.177558571E+03	 5.579200195E+03
 1.178111398E+03	 5.608600098E+03
 1.178664167E+03	 5.578000000E+03
 1.179216877E+03	 5.607399902E+03
 1.179769530E+03	 5.626000000E+03
 1.180322125E+03	 5.613399902E+03
 1.180874661E+03	 5.589000000E+03
 1.181427140E+03	 5.614600098E+03
 1.181979561E+03	 5.628399902E+03
 1.182531924E+03	 5.644799805E+03
 1.183084228E+03	 5.609399902E+03
 1.183636475E+03	 5.607200195E+03
 1.184188664E+03	 5.655399902E+03
 1.184740795E+03	 5.624399902E+03
 1.185292868E+03	 5.613799805E+03
 1.185844883E+03	 5.644799805E+03
 1.186396840E+03	 5.628799805E+03
 1.186948739E+03	 5.654000000E+03
 1.187500581E+03	 5.660000000E+03
 1.188052364E+03	 5.677200195E+03
 1.188604089E+03	 5.693600098E+03
 1.189155757E+03	 5.683600098E+03
 1.189707366E+03	 5.701200195E+03
 1.190258918E+03	 5.653799805E+03
 1.190810412E+03	 5.695600098E+03
 1.191361847E+03	 5.715399902E+03
 1.191913225E+03	 5.671399902E+03
 1.192464545E+03	 5.724399902E+03
 1.193015808E+03	 5.672600098E+03
 1.193567012E+03	 5.753000000E+03
 1.194118158E+03	 5.709799805E+03
 1.194669247E+03	 5.723000000E+03
 1.195220278E+03	 5.721000000E+03
 1.195771250E+03	 5.756799805E+03
 1.196322165E+03	 5.708600098E+03
 1.196873022E+03	 5.746600098E+03
 1.197423822E+03	 5.723200195E+03
 1.197974563E+03	 5.691000000E+03
 1.198525247E+03	 5.753600098E+03
 1.199075872E+03	 5.778799805E+03
 1.199626440E+03	 5.761000000E+03
 1.200176950E+03	 5.806399902E+03
 1.200727403E+03	 5.768000000E+03
 1.201277797E+03	 5.806799805E+03
 1.201828134E+03	 5.815799805E+03
 1.202378412E+03	 5.750200195E+03
 1.202928633E+03	 5.825600098E+03
 1.203478797E+03	 5.826799805E+03
 1.204028902E+03	 5.885600098E+03
 1.204578950E+03	 5.804200195E+03
 1.205128940E+03	 5.846000000E+03
 1.205678872E+03	 5.848200195E+03
 1.206228746E+03	 5.900600098E+03
 1.206778562E+03	 5.872600098E+03
 1.207328321E+03	 5.891799805E+03
 1.207878022E+03	 5.885200195E+03
 1.208427665E+03	 5.851799805E+03
 1.208977251E+03	 5.889799805E+03
 1.209526779E+03	 5.886799805E+03
 1.210076249E+03	 5.886799805E+03
 1.210625661E+03	 5.911799805E+03
 1.211175015E+03	 5.928399902E+03
 1.211724312E+03	 5.884000000E+03
 1.212273551E+03	 5.930600098E+03
 1.212822733E+03	 5.937399902E+03
 1.213371856E+03	 5.928600098E+03
 1.213920922E+03	 5.924000000E+03
 1.214469930E+03	 5.990000000E+03
 1.215018881E+03	 5.953799805E+03
 1.215567774E+03	 5.946200195E+03
 1.216116609E+03	 5.927200195E+03
 1.216665386E+03	 5.965799805E+03
 1.217214106E+03	 5.965000000E+03
 1.217762768E+03	 5.976200195E+03
 1.218311372E+03	 5.990000000E+03
 1.218859919E+03	 6.036000000E+03
 1.219408408E+03	 5.974600098E+03
 1.219956840E+03	 6.025799805E+03
 1.220505213E+03	 6.016799805E+03
 1.221053530E+03	 6.054200195E+03
 1.221601788E+03	 6.021200195E+03
 1.222149989E+03	 6.068600098E+03
 1.222698132E+03	 6.057799805E+03
 1.223246218E+03	 6.061799805E+03
 1.223794245E+03	 6.045000000E+03
 1.224342216E+03	 6.036000000E+03
 1.224890128E+03	 6.067000000E+03
 1.225437983E+03	 6.081600098E+03
 1.225985781E+03	 6.094799805E+03
 1.226533521E+03	 6.068600098E+03
 1.227081203E+03	 6.118200195E+03
 1.227628828E+03	 6.089200195E+03
 1.228176395E+03	 6.071000000E+03
 1.228723904E+03	 6.120799805E+03
 1.229271356E+03	 6.131600098E+03
 1.229818750E+03	 6.091799805E+03
 1.230366087E+03	 6.153000000E+03
 1.230913366E+03	 6.122600098E+03
 1.231460588E+03	 6.144799805E+03
 1.232007752E+03	 6.132200195E+03
 1.232554858E+03	 6.163799805E+03
 1.233101907E+03	 6.152000000E+03
 1.233648898E+03	 6.196200195E+03
 1.234195832E+03	 6.147200195E+03
 1.234742709E+03	 6.185000000E+03
 1.235289527E+03	 6.188600098E+03
 1.235836289E+03	 6.234799805E+03
 1.236382992E+03	 6.178799805E+03
 1.236929639E+03	 6.230000000E+03
 1.237476227E+03	 6.242200195E+03
 1.238022758E+03	 6.237000000E+03
 1.238569232E+03	 6.225399902E+03
 1.239115648E+03	 6.237600098E+03
 1.239662007E+03	 6.223799805E+03
 1.240208308E+03	 6.237000000E+03
 1.240754552E+03	 6.191000000E+03
 1.241300738E+03	 6.231399902E+03
 1.241846867E+03	 6.261799805E+03
 1.242392938E+03	 6.232399902E+03
 1.242938952E+03	 6.273399902E+03
 1.243484908E+03	 6.227600098E+03
 1.244030807E+03	 6.258000000E+03
 1.244576648E+03	 6.245000000E+03
 1.245122432E+03	 6.266200195E+03
 1.245668159E+03	 6.293399902E+03
 1.246213828E+03	 6.289399902E+03
 1.246759440E+03	 6.307000000E+03
 1.247304994E+03	 6.337000000E+03
 1.247850490E+03	 6.346799805E+03
 1.248395930E+03	 6.334000000E+03
 1.248941312E+03	 6.282000000E+03
 1.249486636E+03	 6.331399902E+03
 1.250031903E+03	 6.313000000E+03
 1.250577113E+03	 6.336200195E+03
 1.251122265E+03	 6.297200195E+03
 1.251667360E+03	 6.336600098E+03
 1.252212398E+03	 6.377799805E+03
 1.252757378E+03	 6.347200195E+03
 1.253302301E+03	 6.356799805E+03
 1.253847166E+03	 6.374399902E+03
 1.254391974E+03	 6.392799805E+03
 1.254936725E+03	 6.350000000E+03
 1.255481418E+03	 6.361000000E+03
 1.256026054E+03	 6.401799805E+03
 1.256570632E+03	 6.366000000E+03
 1.257115154E+03	 6.343399902E+03
 1.257659617E+03	 6.421200195E+03
 1.258204024E+03	 6.390600098E+03
 1.258748373E+03	 6.419399902E+03
 1.259292665E+03	 6.405799805E+03
 1.259836900E+03	 6.430600098E+03
 1.260381077E+03	 6.464399902E+03
 1.260925197E+03	 6.429600098E+03
 1.261469259E+03	 6.446000000E+03
 1.262013264E+03	 6.489799805E+03
 1.262557212E+03	 6.459799805E+03
 1.263101103E+03	 6.465600098E+03
 1.263644936E+03	 6.509799805E+03
 1.264188712E+03	 6.482600098E+03
 1.264732431E+03	 6.491799805E+03
 1.265276093E+03	 6.484399902E+03
 1.265819697E+03	 6.484200195E+03
 1.266363244E+03	 6.457600098E+03
 1.266906734E+03	 6.504399902E+03
 1.267450166E+03	 6.497799805E+03
 1.267993541E+03	 6.486200195E+03
 1.268536859E+03	 6.472200195E+03
 1.269080120E+03	 6.499200195E+03
 1.269623323E+03	 6.507000000E+03
 1.270166469E+03	 6.527799805E+03
 1.270709558E+03	 6.474600098E+03
 1.271252590E+03	 6.492799805E+03
 1.271795564E+03	 6.524000000E+03
 1.272338481E+03	 6.524399902E+03
 1.272881341E+03	 6.535399902E+03
 1.273424144E+03	 6.558600098E+03
 1.273966890E+03	 6.515200195E+03
 1.274509578E+03	 6.536200195E+03
 1.275052209E+03	 6.529399902E+03
 1.275594783E+03	 6.574799805E+03
 1.276137300E+03	 6.577200195E+03
 1.276679760E+03	 6.587799805E+03
 1.277222162E+03	 6.594000000E+03
 1.277764507E+03	 6.539799805E+03
 1.278306796E+03	 6.604799805E+03
 1.278849026E+03	 6.614000000E+03
 1.279391200E+03	 6.685000000E+03
 1.279933317E+03	 6.733799805E+03
 1.280475376E+03	 6.837799805E+03
 1.281017378E+03	 7.021799805E+03
 1.281559324E+03	 7.495600098E+03
 1.282101212E+03	 7.788799805E+03
 1.282643042E+03	 7.643399902E+03
 1.283184816E+03	 7.259200195E+03
 1.283726533E+03	 6.966399902E+03
 1.284268192E+03	 6.810200195E+03
 1.284809795E+03	 6.738600098E+03
 1.285351340E+03	 6.752399902E+03
 1.285892828E+03	 6.651399902E+03
 1.286434259E+03	 6.666799805E+03
 1.286975633E+03	 6.658200195E+03
 1.287516950E+03	 6.703200195E+03
 1.288058209E+03	 6.694399902E+03
 1.288599412E+03	 6.707600098E+03
 1.289140558E+03	 6.705600098E+03
 1.289681646E+03	 6.702799805E+03
 1.290222677E+03	 6.675799805E+03
 1.290763652E+03	 6.686600098E+03
 1.291304569E+03	 6.706600098E+03
 1.291845429E+03	 6.702399902E+03
 1.292386232E+03	 6.678000000E+03
 1.292926979E+03	 6.658000000E+03
 1.293467668E+03	 6.675200195E+03
 1.294008300E+03	 6.718399902E+03
 1.294548875E+03	 6.738200195E+03
 1.295089392E+03	 6.717399902E+03
 1.295629853E+03	 6.724799805E+03
 1.296170257E+03	 6.756200195E+03
 1.296710604E+03	 6.808600098E+03
 1.297250894E+03	 6.773000000E+03
 1.297791127E+03	 6.753799805E+03
 1.298331303E+03	 6.766600098E+03
 1.298871422E+03	 6.752600098E+03
 1.299411483E+03	 6.800600098E+03
 1.299951488E+03	 6.849200195E+03
 1.300491436E+03	 6.777799805E+03
 1.301031327E+03	 6.822399902E+03
 1.301571161E+03	 6.858000000E+03
 1.302110938E+03	 6.775200195E+03
 1.302650658E+03	 6.794799805E+03
 1.303190321E+03	 6.829399902E+03
 1.303729927E+03	 6.837600098E+03
 1.304269476E+03	 6.860799805E+03
 1.304808968E+03	 6.830799805E+03
 1.305348403E+03	 6.862000000E+03
 1.305887781E+03	 6.852399902E+03
 1.306427102E+03	 6.848399902E+03
 1.306966367E+03	 6.897799805E+03
 1.307505574E+03	 6.852399902E+03
 1.308044725E+03	 6.876000000E+03
 1.308583818E+03	 6.870799805E+03
 1.309122855E+03	 6.894600098E+03
 1.309661835E+03	 6.921799805E+03
 1.310200757E+03	 6.864799805E+03
 1.310739623E+03	 6.891399902E+03
 1.311278432E+03	 6.879399902E+03
 1.311817185E+03	 6.901000000E+03
 1.312355880E+03	 6.935600098E+03
 1.312894518E+03	 6.889600098E+03
 1.313433100E+03	 6.967000000E+03
 1.313971624E+03	 6.917000000E+03
 1.314510092E+03	 6.961200195E+03
 1.315048503E+03	 6.919000000E+03
 1.315586857E+03	 6.952399902E+03
 1.316125154E+03	 6.944600098E+03
 1.316663394E+03	 6.931799805E+03
 1.317201578E+03	 6.972200195E+03
 1.317739704E+03	 6.960600098E+03
 1.318277774E+03	 6.989600098E+03
 1.318815787E+03	 7.000600098E+03
 1.319353743E+03	 6.964000000E+03
 1.319891642E+03	 6.947600098E+03
 1.320429485E+03	 7.013799805E+03
 1.320967270E+03	 6.976200195E+03
 1.321504999E+03	 7.001600098E+03
 1.322042671E+03	 7.009600098E+03
 1.322580286E+03	 7.010799805E+03
 1.323117845E+03	 7.010000000E+03
 1.323655346E+03	 7.056600098E+03
 1.324192791E+03	 7.000399902E+03
 1.324730179E+03	 7.058600098E+03
 1.325267511E+03	 7.063399902E+03
 1.325804785E+03	 7.069799805E+03
 1.326342003E+03	 7.057600098E+03
 1.326879164E+03	 7.071000000E+03
 1.327416268E+03	 7.033200195E+03
 1.327953315E+03	 7.038399902E+03
 1.328490306E+03	 7.078600098E+03
 1.329027240E+03	 7.064000000E+03
 1.329564117E+03	 7.097200195E+03
 1.330100937E+03	 7.062000000E+03
 1.330637701E+03	 7.055200195E+03
 1.331174408E+03	 7.083799805E+03
 1.331711058E+03	 7.083000000E+03
 1.332247652E+03	 7.130600098E+03
 1.332784188E+03	 7.129200195E+03
 1.333320668E+03	 7.106799805E+03
 1.333857092E+03	 7.136399902E+03
 1.334393458E+03	 7.122799805E+03
 1.334929768E+03	 7.152000000E+03
 1.335466022E+03	 7.114600098E+03
 1.336002218E+03	 7.092200195E+03
 1.336538358E+03	 7.149600098E+03
 1.337074441E+03	 7.085399902E+03
 1.337610468E+03	 7.109399902E+03
 1.338146438E+03	 7.139600098E+03
 1.338682351E+03	 7.145799805E+03
 1.339218207E+03	 7.123000000E+03
 1.339754007E+03	 7.167799805E+03
 1.340289750E+03	 7.164399902E+03
 1.340825437E+03	 7.166000000E+03
 1.341361067E+03	 7.145399902E+03
 1.341896640E+03	 7.190799805E+03
 1.342432156E+03	 7.188799805E+03
 1.342967616E+03	 7.158200195E+03
 1.343503020E+03	 7.199600098E+03
 1.344038366E+03	 7.162000000E+03
 1.344573657E+03	 7.155200195E+03
 1.345108890E+03	 7.193399902E+03
 1.345644067E+03	 7.172799805E+03
 1.346179187E+03	 7.190600098E+03
 1.346714251E+03	 7.238000000E+03
 1.347249258E+03	 7.185000000E+03
 1.347784208E+03	 7.235600098E+03
 1.348319102E+03	 7.229200195E+03
 1.348853939E+03	 7.191799805E+03
 1.349388720E+03	 7.189799805E+03
 1.349923444E+03	 7.216399902E+03
 1.350458112E+03	 7.221399902E+03
 1.350992723E+03	 7.212200195E+03
 1.351527277E+03	 7.166799805E+03
 1.352061775E+03	 7.197799805E+03
 1.352596216E+03	 7.236600098E+03
 1.353130601E+03	 7.231600098E+03
 1.353664929E+03	 7.179600098E+03
 1.354199201E+03	 7.221000000E+03
 1.354733416E+03	 7.265399902E+03
 1.355267575E+03	 7.240200195E+03
 1.355801677E+03	 7.267000000E+03
 1.356335722E+03	 7.212399902E+03
 1.356869711E+03	 7.226200195E+03
 1.357403644E+03	 7.193000000E+03
 1.357937520E+03	 7.288000000E+03
 1.358471340E+03	 7.218799805E+03
 1.359005103E+03	 7.285399902E+03
 1.359538809E+03	 7.245399902E+03
 1.360072459E+03	 7.263200195E+03
 1.360606053E+03	 7.267000000E+03
 1.361139590E+03	 7.261799805E+03
 1.361673070E+03	 7.259799805E+03
 1.362206494E+03	 7.291799805E+03
 1.362739862E+03	 7.296200195E+03
 1.363273173E+03	 7.289200195E+03
 1.363806428E+03	 7.305600098E+03
 1.364339626E+03	 7.312000000E+03
 1.364872768E+03	 7.356000000E+03
 1.365405853E+03	 7.324000000E+03
 1.365938882E+03	 7.302200195E+03
 1.366471855E+03	 7.316799805E+03
 1.367004771E+03	 7.311399902E+03
 1.367537630E+03	 7.351000000E+03
 1.368070434E+03	 7.313000000E+03
 1.368603180E+03	 7.360200195E+03
 1.369135871E+03	 7.363000000E+03
 1.369668505E+03	 7.334399902E+03
 1.370201082E+03	 7.330799805E+03
 1.370733603E+03	 7.346399902E+03
 1.371266068E+03	 7.344200195E+03
 1.371798476E+03	 7.333799805E+03
 1.372330828E+03	 7.329399902E+03
 1.372863124E+03	 7.419799805E+03
 1.373395363E+03	 7.340200195E+03
 1.373927546E+03	 7.389200195E+03
 1.374459672E+03	 7.394600098E+03
 1.374991743E+03	 7.403799805E+03
 1.375523756E+03	 7.373200195E+03
 1.376055714E+03	 7.417600098E+03
 1.376587615E+03	 7.431399902E+03
 1.377119459E+03	 7.415000000E+03
 1.377651248E+03	 7.419399902E+03
 1.378182980E+03	 7.422600098E+03
 1.378714655E+03	 7.475799805E+03
 1.379246274E+03	 7.401000000E+03
 1.379777837E+03	 7.452600098E+03
 1.380309344E+03	 7.460200195E+03
 1.380840794E+03	 7.500200195E+03
 1.381372188E+03	 7.468399902E+03
 1.381903526E+03	 7.490200195E+03
 1.382434808E+03	 7.488799805E+03
 1.382966033E+03	 7.560799805E+03
 1.383497201E+03	 7.568600098E+03
 1.384028314E+03	 7.614799805E+03
 1.384559370E+03	 7.644399902E+03
 1.385090370E+03	 7.771200195E+03
 1.385621314E+03	 8.104799805E+03
 1.386152201E+03	 8.598000000E+03
 1.386683032E+03	 9.507200195E+03
 1.387213807E+03	 9.744799805E+03
 1.387744526E+03	 9.045799805E+03
 1.388275188E+03	 8.346000000E+03
 1.388805794E+03	 7.945399902E+03
 1.389336344E+03	 7.755399902E+03
 1.389866838E+03	 7.677600098E+03
 1.390397275E+03	 7.645799805E+03
 1.390927656E+03	 7.597399902E+03
 1.391457981E+03	 7.579399902E+03
 1.391988250E+03	 7.531200195E+03
 1.392518462E+03	 7.597399902E+03
 1.393048619E+03	 7.533000000E+03
 1.393578719E+03	 7.569000000E+03
 1.394108762E+03	 7.576399902E+03
 1.394638750E+03	 7.606000000E+03
 1.395168682E+03	 7.582000000E+03
 1.395698557E+03	 7.592200195E+03
 1.396228376E+03	 7.563000000E+03
 1.396758139E+03	 7.580200195E+03
 1.397287845E+03	 7.570200195E+03
 1.397817496E+03	 7.567000000E+03
 1.398347090E+03	 7.597799805E+03
 1.398876628E+03	 7.600799805E+03
 1.399406110E+03	 7.609600098E+03
 1.399935536E+03	 7.605000000E+03
 1.400464906E+03	 7.657600098E+03
 1.400994219E+03	 7.609000000E+03
 1.401523477E+03	 7.618000000E+03
 1.402052678E+03	 7.620000000E+03
 1.402581823E+03	 7.686799805E+03
 1.403110912E+03	 7.602200195E+03
 1.403639945E+03	 7.638799805E+03
 1.404168922E+03	 7.626799805E+03
 1.404697842E+03	 7.662000000E+03
 1.405226707E+03	 7.676200195E+03
 1.405755515E+03	 7.661200195E+03
 1.406284267E+03	 7.682399902E+03
 1.406812964E+03	 7.700399902E+03
 1.407341604E+03	 7.725600098E+03
 1.407870188E+03	 7.687600098E+03
 1.408398716E+03	 7.749799805E+03
 1.408927187E+03	 7.764000000E+03
 1.409455603E+03	 7.779000000E+03
 1.409983963E+03	 7.728000000E+03
 1.410512266E+03	 7.754799805E+03
 1.411040514E+03	 7.723600098E+03
 1.411568705E+03	 7.712399902E+03
 1.412096841E+03	 7.728000000E+03
 1.412624920E+03	 7.709600098E+03
 1.413152944E+03	 7.708600098E+03
 1.413680911E+03	 7.746600098E+03
 1.414208822E+03	 7.710200195E+03
 1.414736677E+03	 7.719000000E+03
 1.415264476E+03	 7.725399902E+03
 1.415792220E+03	 7.755799805E+03
 1.416319907E+03	 7.705000000E+03
 1.416847538E+03	 7.755000000E+03
 1.417375113E+03	 7.774399902E+03
 1.417902632E+03	 7.757000000E+03
 1.418430095E+03	 7.746600098E+03
 1.418957502E+03	 7.728399902E+03
 1.419484853E+03	 7.750600098E+03
 1.420012148E+03	 7.731600098E+03
 1.420539387E+03	 7.738799805E+03
 1.421066570E+03	 7.748399902E+03
 1.421593698E+03	 7.791600098E+03
 1.422120769E+03	 7.787799805E+03
 1.422647784E+03	 7.775399902E+03
 1.423174743E+03	 7.753600098E+03
 1.423701647E+03	 7.794200195E+03
 1.424228494E+03	 7.787000000E+03
 1.424755285E+03	 7.791000000E+03
 1.425282021E+03	 7.797799805E+03
 1.425808700E+03	 7.840799805E+03
 1.426335324E+03	 7.817799805E+03
 1.426861891E+03	 7.775000000E+03
 1.427388403E+03	 7.793200195E+03
 1.427914859E+03	 7.801600098E+03
 1.428441259E+03	 7.826200195E+03
 1.428967602E+03	 7.838000000E+03
 1.429493890E+03	 7.824399902E+03
 1.430020123E+03	 7.809799805E+03
 1.430546299E+03	 7.804000000E+03
 1.431072419E+03	 7.838600098E+03
 1.431598483E+03	 7.882399902E+03
 1.432124492E+03	 7.852600098E+03
 1.432650445E+03	 7.822000000E+03
 1.433176341E+03	 7.856399902E+03
 1.433702182E+03	 7.883200195E+03
 1.434227967E+03	 7.876799805E+03
 1.434753696E+03	 7.864600098E+03
 1.435279370E+03	 7.841600098E+03
 1.435804987E+03	 7.886200195E+03
 1.436330549E+03	 7.841000000E+03
 1.436856054E+03	 7.841600098E+03
 1.437381504E+03	 7.829200195E+03
 1.437906898E+03	 7.885200195E+03
 1.438432236E+03	 7.843000000E+03
 1.438957519E+03	 7.880200195E+03
 1.439482745E+03	 7.915200195E+03
 1.440007916E+03	 7.873200195E+03
 1.440533031E+03	 7.952799805E+03
 1.441058090E+03	 7.868399902E+03
 1.441583093E+03	 7.931200195E+03
 1.442108041E+03	 7.887600098E+03
 1.442632932E+03	 7.906200195E+03
 1.443157768E+03	 7.890799805E+03
 1.443682548E+03	 7.885399902E+03
 1.444207272E+03	 7.906399902E+03
 1.444731941E+03	 7.955799805E+03
 1.445256554E+03	 7.964799805E+03
 1.445781111E+03	 7.937399902E+03
 1.446305612E+03	 7.997200195E+03
 1.446830057E+03	 7.937399902E+03
 1.447354447E+03	 7.971000000E+03
 1.447878781E+03	 7.930399902E+03
 1.448403059E+03	 7.912399902E+03
 1.448927281E+03	 7.951799805E+03
 1.449451448E+03	 7.931600098E+03
 1.449975559E+03	 7.938799805E+03
 1.450499614E+03	 7.964799805E+03
 1.451023613E+03	 7.952000000E+03
 1.451547557E+03	 7.953399902E+03
 1.452071445E+03	 7.945000000E+03
 1.452595277E+03	 7.952600098E+03
 1.453119054E+03	 7.971200195E+03
 1.453642774E+03	 7.953600098E+03
 1.454166440E+03	 8.003200195E+03
 1.454690049E+03	 7.924799805E+03
 1.455213603E+03	 7.986000000E+03
 1.455737101E+03	 7.994399902E+03
 1.456260543E+03	 8.001000000E+03
 1.456783930E+03	 7.935000000E+03
 1.457307261E+03	 7.975399902E+03
 1.457830536E+03	 7.995799805E+03
 1.458353756E+03	 7.988399902E+03
 1.458876920E+03	 8.010799805E+03
 1.459400028E+03	 7.964000000E+03
 1.459923081E+03	 8.001000000E+03
 1.460446078E+03	 7.977200195E+03
 1.460969019E+03	 7.986399902E+03
 1.461491905E+03	 7.998600098E+03
 1.462014735E+03	 8.005600098E+03
 1.462537509E+03	 7.972000000E+03
 1.463060228E+03	 8.039600098E+03
 1.463582891E+03	 8.049200195E+03
 1.464105499E+03	 8.040799805E+03
 1.464628051E+03	 7.973799805E+03
 1.465150547E+03	 7.991200195E+03
 1.465672988E+03	 7.974799805E+03
 1.466195373E+03	 7.975399902E+03
 1.466717702E+03	 7.986399902E+03
 1.467239976E+03	 7.985799805E+03
 1.467762195E+03	 8.025000000E+03
 1.468284357E+03	 8.008200195E+03
 1.468806464E+03	 8.030000000E+03
 1.469328516E+03	 8.032000000E+03
 1.469850512E+03	 8.074000000E+03
 1.470372452E+03	 8.051000000E+03
 1.470894337E+03	 8.059600098E+03
 1.471416167E+03	 8.093000000E+03
 1.471937940E+03	 8.078799805E+03
 1.472459659E+03	 8.032399902E+03
 1.472981321E+03	 8.052000000E+03
 1.473502928E+03	 8.103200195E+03
 1.474024480E+03	 8.070000000E+03
 1.474545976E+03	 8.051600098E+03
 1.475067416E+03	 8.021399902E+03
 1.475588801E+03	 8.055600098E+03
 1.476110131E+03	 8.062799805E+03
 1.476631405E+03	 8.067200195E+03
 1.477152623E+03	 8.093600098E+03
 1.477673786E+03	 8.063399902E+03
 1.478194894E+03	 8.066799805E+03
 1.478715946E+03	 8.088000000E+03
 1.479236942E+03	 8.085600098E+03
 1.479757883E+03	 8.071399902E+03
 1.480278768E+03	 8.098000000E+03
 1.480799598E+03	 8.082200195E+03
 1.481320373E+03	 8.070600098E+03
 1.481841092E+03	 8.108200195E+03
 1.482361755E+03	 8.089799805E+03
 1.482882363E+03	 8.089000000E+03
 1.483402916E+03	 8.080000000E+03
 1.483923413E+03	 8.088000000E+03
 1.484443855E+03	 8.108200195E+03
 1.484964241E+03	 8.124000000E+03
 1.485484572E+03	 8.060799805E+03
 1.486004847E+03	 8.099399902E+03
 1.486525067E+03	 8.089799805E+03
 1.487045232E+03	 8.105200195E+03
 1.487565341E+03	 8.110799805E+03
 1.488085395E+03	 8.054799805E+03
 1.488605393E+03	 8.203200195E+03
 1.489125336E+03	 8.121799805E+03
 1.489645223E+03	 8.137000000E+03
 1.490165055E+03	 8.105000000E+03
 1.490684832E+03	 8.142399902E+03
 1.491204553E+03	 8.145399902E+03
 1.491724219E+03	 8.141200195E+03
 1.492243829E+03	 8.129000000E+03
 1.492763385E+03	 8.137000000E+03
 1.493282884E+03	 8.162399902E+03
 1.493802329E+03	 8.168600098E+03
 1.494321718E+03	 8.113799805E+03
 1.494841051E+03	 8.122600098E+03
 1.495360329E+03	 8.122600098E+03
 1.495879552E+03	 8.117000000E+03
 1.496398720E+03	 8.164200195E+03
 1.496917832E+03	 8.130000000E+03
 1.497436889E+03	 8.200000000E+03
 1.497955890E+03	 8.168600098E+03
 1.498474837E+03	 8.161600098E+03
 1.498993727E+03	 8.176000000E+03
 1.499512563E+03	 8.172200195E+03
 1.500031343E+03	 8.219200195E+03
 1.500550068E+03	 8.174399902E+03
 1.501068738E+03	 8.166000000E+03
 1.501587352E+03	 8.167600098E+03
 1.502105911E+03	 8.149799805E+03
 1.502624414E+03	 8.173799805E+03
 1.503142863E+03	 8.208400391E+03
 1.503661256E+03	 8.189200195E+03
 1.504179594E+03	 8.209400391E+03
 1.504697876E+03	 8.177000000E+03
 1.505216103E+03	 8.250400391E+03
 1.505734275E+03	 8.201799805E+03
 1.506252392E+03	 8.226799805E+03
 1.506770454E+03	 8.162200195E+03
 1.507288460E+03	 8.317000000E+03
 1.507806411E+03	 8.268599609E+03
 1.508324306E+03	 8.201599609E+03
 1.508842147E+03	 8.192400391E+03
 1.509359932E+03	 8.191600098E+03
 1.509877662E+03	 8.199200195E+03
 1.510395337E+03	 8.180000000E+03
 1.510912956E+03	 8.255799805E+03
 1.511430520E+03	 8.224599609E+03
 1.511948029E+03	 8.241400391E+03
 1.512465483E+03	 8.172799805E+03
 1.512982882E+03	 8.220000000E+03
 1.513500225E+03	 8.221200195E+03
 1.514017513E+03	 8.194400391E+03
 1.514534746E+03	 8.180200195E+03
 1.515051924E+03	 8.201799805E+03
 1.515569047E+03	 8.224200195E+03
 1.516086114E+03	 8.182399902E+03
 1.516603126E+03	 8.201200195E+03
 1.517120084E+03	 8.201400391E+03
 1.517636985E+03	 8.194799805E+03
 1.518153832E+03	 8.171399902E+03
 1.518670624E+03	 8.229599609E+03
 1.519187360E+03	 8.222799805E+03
 1.519704041E+03	 8.196599609E+03
 1.520220667E+03	 8.221400391E+03
 1.520737238E+03	 8.188200195E+03
 1.521253754E+03	 8.173399902E+03
 1.521770215E+03	 8.202200195E+03
 1.522286620E+03	 8.147600098E+03
 1.522802971E+03	 8.134799805E+03
 1.523319266E+03	 8.182399902E+03
 1.523835506E+03	 8.224200195E+03
 1.524351691E+03	 8.162000000E+03
 1.524867821E+03	 8.162200195E+03
 1.525383896E+03	 8.206599609E+03
 1.525899916E+03	 8.248599609E+03
 1.526415881E+03	 8.265000000E+03
 1.526931790E+03	 8.224599609E+03
 1.527447645E+03	 8.208200195E+03
 1.527963444E+03	 8.185600098E+03
 1.528479188E+03	 8.201599609E+03
 1.528994877E+03	 8.184200195E+03
 1.529510512E+03	 8.196599609E+03
 1.530026091E+03	 8.212000000E+03
 1.530541615E+03	 8.241000000E+03
 1.531057084E+03	 8.221200195E+03
 1.531572497E+03	 8.229200195E+03
 1.532087856E+03	 8.192799805E+03
 1.532603160E+03	 8.183000000E+03
 1.533118409E+03	 8.146799805E+03
 1.533633603E+03	 8.168600098E+03
 1.534148741E+03	 8.211200195E+03
 1.534663825E+03	 8.188799805E+03
 1.535178853E+03	 8.199200195E+03
 1.535693827E+03	 8.172600098E+03
 1.536208746E+03	 8.216000000E+03
 1.536723609E+03	 8.162399902E+03
 1.537238418E+03	 8.219000000E+03
 1.537753171E+03	 8.178200195E+03
 1.538267870E+03	 8.208799805E+03
 1.538782514E+03	 8.207799805E+03
 1.539297102E+03	 8.241599609E+03
 1.539811636E+03	 8.159600098E+03
 1.540326114E+03	 8.198000000E+03
 1.540840538E+03	 8.185200195E+03
 1.541354907E+03	 8.173200195E+03
 1.541869220E+03	 8.166000000E+03
 1.542383479E+03	 8.205200195E+03
 1.542897683E+03	 8.174399902E+03
 1.543411832E+03	 8.217400391E+03
 1.543925926E+03	 8.201599609E+03
 1.544439964E+03	 8.224599609E+03
 1.544953948E+03	 8.230200195E+03
 1.545467877E+03	 8.220799805E+03
 1.545981752E+03	 8.195799805E+03
 1.546495571E+03	 8.182799805E+03
 1.547009335E+03	 8.208200195E+03
 1.547523044E+03	 8.231200195E+03
 1.548036699E+03	 8.195599609E+03
 1.548550298E+03	 8.214000000E+03
 1.549063843E+03	 8.234400391E+03
 1.549577333E+03	 8.230000000E+03
 1.550090767E+03	 8.266400391E+03
 1.550604147E+03	 8.236799805E+03
 1.551117472E+03	 8.234000000E+03
 1.551630742E+03	 8.190000000E+03
 1.552143958E+03	 8.260599609E+03
 1.552657118E+03	 8.219400391E+03
 1.553170224E+03	 8.255000000E+03
 1.553683274E+03	 8.180600098E+03
 1.554196270E+03	 8.213400391E+03
 1.554709211E+03	 8.247400391E+03
 1.555222097E+03	 8.266799805E+03
 1.555734928E+03	 8.247400391E+03
 1.556247705E+03	 8.228200195E+03
 1.556760426E+03	 8.288599609E+03
 1.557273093E+03	 8.213000000E+03
 1.557785705E+03	 8.253799805E+03
 1.558298262E+03	 8.198799805E+03
 1.558810764E+03	 8.315400391E+03
 1.559323211E+03	 8.243799805E+03
 1.559835604E+03	 8.275200195E+03
 1.560347941E+03	 8.252799805E+03
 1.560860224E+03	 8.280400391E+03
 1.561372452E+03	 8.258400391E+03
 1.561884626E+03	 8.234799805E+03
 1.562396744E+03	 8.320000000E+03
 1.562908808E+03	 8.273000000E+03
 1.563420817E+03	 8.311000000E+03
 1.563932771E+03	 8.235200195E+03
 1.564444671E+03	 8.354400391E+03
 1.564956515E+03	 8.225599609E+03
 1.565468305E+03	 8.314400391E+03
 1.565980040E+03	 8.286200195E+03
 1.566491721E+03	 8.294799805E+03
 1.567003346E+03	 8.244200195E+03
 1.567514917E+03	 8.280200195E+03
 1.568026433E+03	 8.285400391E+03
 1.568537894E+03	 8.290799805E+03
 1.569049301E+03	 8.330599609E+03
 1.569560653E+03	 8.304599609E+03
 1.570071950E+03	 8.286200195E+03
 1.570583192E+03	 8.271400391E+03
 1.571094380E+03	 8.305599609E+03
 1.571605513E+03	 8.286200195E+03
 1.572116591E+03	 8.284200195E+03
 1.572627615E+03	 8.306400391E+03
 1.573138584E+03	 8.310799805E+03
 1.573649498E+03	 8.371000000E+03
 1.574160357E+03	 8.306000000E+03
 1.574671162E+03	 8.336599609E+03
 1.575181912E+03	 8.322000000E+03
 1.575692608E+03	 8.375400391E+03
 1.576203248E+03	 8.324799805E+03
 1.576713834E+03	 8.365400391E+03
 1.577224366E+03	 8.352200195E+03
 1.577734843E+03	 8.331400391E+03
 1.578245265E+03	 8.362599609E+03
 1.578755632E+03	 8.367599609E+03
 1.579265945E+03	 8.384000000E+03
 1.579776203E+03	 8.320200195E+03
 1.580286406E+03	 8.370400391E+03
 1.580796555E+03	 8.283000000E+03
 1.581306649E+03	 8.341599609E+03
 1.581816689E+03	 8.364200195E+03
 1.582326674E+03	 8.365000000E+03
 1.582836604E+03	 8.370400391E+03
 1.583346480E+03	 8.377200195E+03
 1.583856301E+03	 8.367400391E+03
 1.584366067E+03	 8.335599609E+03
 1.584875779E+03	 8.381400391E+03
 1.585385437E+03	 8.336599609E+03
 1.585895039E+03	 8.379599609E+03
 1.586404587E+03	 8.384400391E+03
 1.586914081E+03	 8.393000000E+03
 1.587423520E+03	 8.377400391E+03
 1.587932904E+03	 8.398400391E+03
 1.588442234E+03	 8.378799805E+03
 1.588951509E+03	 8.383599609E+03
 1.589460730E+03	 8.382799805E+03
 1.589969896E+03	 8.392000000E+03
 1.590479007E+03	 8.413799805E+03
 1.590988064E+03	 8.435599609E+03
 1.591497067E+03	 8.423400391E+03
 1.592006015E+03	 8.429799805E+03
