 1.042057870E+03	 1.557400024E+03
 1.042624871E+03	 1.570000000E+03
 1.043191812E+03	 1.558199951E+03
 1.043758695E+03	 1.571400024E+03
 1.044325518E+03	 1.574199951E+03
 1.044892283E+03	 1.558199951E+03
 1.045458988E+03	 1.547000000E+03
 1.046025634E+03	 1.551400024E+03
 1.046592221E+03	 1.557400024E+03
 1.047158749E+03	 1.561599976E+03
 1.047725218E+03	 1.547000000E+03
 1.048291628E+03	 1.560000000E+03
 1.048857978E+03	 1.558599976E+03
 1.049424270E+03	 1.553000000E+03
 1.049990502E+03	 1.562599976E+03
 1.050556676E+03	 1.562599976E+03
 1.051122790E+03	 1.569400024E+03
 1.051688845E+03	 1.566000000E+03
 1.052254841E+03	 1.574199951E+03
 1.052820778E+03	 1.553199951E+03
 1.053386657E+03	 1.570199951E+03
 1.053952476E+03	 1.554199951E+03
 1.054518236E+03	 1.566599976E+03
 1.055083936E+03	 1.555400024E+03
 1.055649578E+03	 1.552400024E+03
 1.056215161E+03	 1.557400024E+03
 1.056780685E+03	 1.557400024E+03
 1.057346150E+03	 1.556800049E+03
 1.057911556E+03	 1.559000000E+03
 1.058476903E+03	 1.577800049E+03
 1.059042191E+03	 1.566400024E+03
 1.059607419E+03	 1.570000000E+03
 1.060172589E+03	 1.574000000E+03
 1.060737700E+03	 1.573400024E+03
 1.061302752E+03	 1.566400024E+03
 1.061867745E+03	 1.559199951E+03
 1.062432679E+03	 1.571599976E+03
 1.062997554E+03	 1.571400024E+03
 1.063562370E+03	 1.559400024E+03
 1.064127127E+03	 1.572199951E+03
 1.064691825E+03	 1.571000000E+03
 1.065256464E+03	 1.576199951E+03
 1.065821044E+03	 1.571000000E+03
 1.066385565E+03	 1.585599976E+03
 1.066950027E+03	 1.576400024E+03
 1.067514431E+03	 1.571400024E+03
 1.068078775E+03	 1.575199951E+03
 1.068643061E+03	 1.577000000E+03
 1.069207287E+03	 1.576400024E+03
 1.069771455E+03	 1.577000000E+03
 1.070335564E+03	 1.576199951E+03
 1.070899613E+03	 1.585599976E+03
 1.071463604E+03	 1.581000000E+03
 1.072027536E+03	 1.584800049E+03
 1.072591409E+03	 1.579400024E+03
 1.073155224E+03	 1.575199951E+03
 1.073718979E+03	 1.587000000E+03
 1.074282676E+03	 1.588000000E+03
 1.074846313E+03	 1.584000000E+03
 1.075409892E+03	 1.598000000E+03
 1.075973412E+03	 1.586400024E+03
 1.076536873E+03	 1.589599976E+03
 1.077100275E+03	 1.571199951E+03
 1.077663618E+03	 1.590599976E+03
 1.078226903E+03	 1.583400024E+03
 1.078790129E+03	 1.595000000E+03
 1.079353295E+03	 1.606800049E+03
 1.079916403E+03	 1.590800049E+03
 1.080479453E+03	 1.589400024E+03
 1.081042443E+03	 1.597000000E+03
 1.081605374E+03	 1.594199951E+03
 1.082168247E+03	 1.597199951E+03
 1.082731061E+03	 1.608000000E+03
 1.083293816E+03	 1.589599976E+03
 1.083856512E+03	 1.602199951E+03
 1.084419150E+03	 1.615400024E+03
 1.084981729E+03	 1.616400024E+03
 1.085544249E+03	 1.611199951E+03
 1.086106710E+03	 1.591599976E+03
 1.086669112E+03	 1.606800049E+03
 1.087231456E+03	 1.614400024E+03
 1.087793741E+03	 1.620199951E+03
 1.088355967E+03	 1.613199951E+03
 1.088918134E+03	 1.615800049E+03
 1.089480243E+03	 1.607400024E+03
 1.090042293E+03	 1.606000000E+03
 1.090604284E+03	 1.608000000E+03
 1.091166216E+03	 1.610400024E+03
 1.091728090E+03	 1.603199951E+03
 1.092289905E+03	 1.616599976E+03
 1.092851661E+03	 1.617000000E+03
 1.093413358E+03	 1.622800049E+03
 1.093974997E+03	 1.625599976E+03
 1.094536577E+03	 1.624400024E+03
 1.095098098E+03	 1.618800049E+03
 1.095659561E+03	 1.616599976E+03
 1.096220965E+03	 1.610800049E+03
 1.096782310E+03	 1.626599976E+03
 1.097343597E+03	 1.616199951E+03
 1.097904825E+03	 1.629000000E+03
 1.098465994E+03	 1.638000000E+03
 1.099027105E+03	 1.639599976E+03
 1.099588157E+03	 1.633800049E+03
 1.100149150E+03	 1.645800049E+03
 1.100710084E+03	 1.636400024E+03
 1.101270960E+03	 1.623199951E+03
 1.101831778E+03	 1.646800049E+03
 1.102392536E+03	 1.633800049E+03
 1.102953236E+03	 1.623800049E+03
 1.103513878E+03	 1.638199951E+03
 1.104074460E+03	 1.642000000E+03
 1.104634984E+03	 1.641400024E+03
 1.105195450E+03	 1.646400024E+03
 1.105755857E+03	 1.639400024E+03
 1.106316205E+03	 1.655000000E+03
 1.106876495E+03	 1.639400024E+03
 1.107436726E+03	 1.658400024E+03
 1.107996898E+03	 1.649599976E+03
 1.108557012E+03	 1.642000000E+03
 1.109117067E+03	 1.649599976E+03
 1.109677064E+03	 1.665199951E+03
 1.110237002E+03	 1.649000000E+03
 1.110796882E+03	 1.652400024E+03
 1.111356703E+03	 1.659400024E+03
 1.111916465E+03	 1.674599976E+03
 1.112476169E+03	 1.663199951E+03
 1.113035814E+03	 1.665599976E+03
 1.113595401E+03	 1.664800049E+03
 1.114154929E+03	 1.683400024E+03
 1.114714399E+03	 1.685199951E+03
 1.115273810E+03	 1.688599976E+03
 1.115833163E+03	 1.668000000E+03
 1.116392457E+03	 1.678199951E+03
 1.116951693E+03	 1.676400024E+03
 1.117510870E+03	 1.656800049E+03
 1.118069988E+03	 1.690000000E+03
 1.118629048E+03	 1.698599976E+03
 1.119188050E+03	 1.691599976E+03
 1.119746993E+03	 1.687199951E+03
 1.120305877E+03	 1.683400024E+03
 1.120864703E+03	 1.693400024E+03
 1.121423471E+03	 1.686199951E+03
 1.121982180E+03	 1.686400024E+03
 1.122540831E+03	 1.689599976E+03
 1.123099423E+03	 1.716400024E+03
 1.123657957E+03	 1.695000000E+03
 1.124216432E+03	 1.705599976E+03
 1.124774849E+03	 1.690800049E+03
 1.125333207E+03	 1.693599976E+03
 1.125891507E+03	 1.692199951E+03
 1.126449748E+03	 1.708599976E+03
 1.127007931E+03	 1.719000000E+03
 1.127566056E+03	 1.717000000E+03
 1.128124122E+03	 1.718400024E+03
 1.128682130E+03	 1.710199951E+03
 1.129240079E+03	 1.702599976E+03
 1.129797970E+03	 1.708000000E+03
 1.130355802E+03	 1.719000000E+03
 1.130913576E+03	 1.722800049E+03
 1.131471292E+03	 1.712000000E+03
 1.132028949E+03	 1.725599976E+03
 1.132586548E+03	 1.722400024E+03
 1.133144089E+03	 1.708800049E+03
 1.133701571E+03	 1.740000000E+03
 1.134258995E+03	 1.740400024E+03
 1.134816360E+03	 1.747599976E+03
 1.135373667E+03	 1.727800049E+03
 1.135930916E+03	 1.743199951E+03
 1.136488106E+03	 1.736400024E+03
 1.137045238E+03	 1.745599976E+03
 1.137602311E+03	 1.744800049E+03
 1.138159327E+03	 1.734800049E+03
 1.138716284E+03	 1.758199951E+03
 1.139273182E+03	 1.737800049E+03
 1.139830022E+03	 1.753599976E+03
 1.140386804E+03	 1.759599976E+03
 1.140943528E+03	 1.735400024E+03
 1.141500193E+03	 1.746599976E+03
 1.142056800E+03	 1.757000000E+03
 1.142613349E+03	 1.747199951E+03
 1.143169839E+03	 1.758599976E+03
 1.143726271E+03	 1.757400024E+03
 1.144282645E+03	 1.744599976E+03
 1.144838960E+03	 1.761000000E+03
 1.145395218E+03	 1.759000000E+03
 1.145951417E+03	 1.770199951E+03
 1.146507557E+03	 1.768000000E+03
 1.147063640E+03	 1.773000000E+03
 1.147619664E+03	 1.776599976E+03
 1.148175630E+03	 1.775400024E+03
 1.148731537E+03	 1.770400024E+03
 1.149287386E+03	 1.762000000E+03
 1.149843178E+03	 1.777199951E+03
 1.150398910E+03	 1.773400024E+03
 1.150954585E+03	 1.782400024E+03
 1.151510201E+03	 1.779000000E+03
 1.152065760E+03	 1.787199951E+03
 1.152621260E+03	 1.786000000E+03
 1.153176701E+03	 1.783800049E+03
 1.153732085E+03	 1.779199951E+03
 1.154287410E+03	 1.778000000E+03
 1.154842677E+03	 1.775599976E+03
 1.155397886E+03	 1.798199951E+03
 1.155953037E+03	 1.795000000E+03
 1.156508129E+03	 1.799000000E+03
 1.157063164E+03	 1.793599976E+03
 1.157618140E+03	 1.792800049E+03
 1.158173058E+03	 1.777000000E+03
 1.158727917E+03	 1.796599976E+03
 1.159282719E+03	 1.800599976E+03
 1.159837463E+03	 1.785800049E+03
 1.160392148E+03	 1.815800049E+03
 1.160946775E+03	 1.790000000E+03
 1.161501344E+03	 1.800800049E+03
 1.162055855E+03	 1.784199951E+03
 1.162610308E+03	 1.805800049E+03
 1.163164702E+03	 1.798000000E+03
 1.163719039E+03	 1.791800049E+03
 1.164273317E+03	 1.787599976E+03
 1.164827537E+03	 1.804800049E+03
 1.165381699E+03	 1.802599976E+03
 1.165935803E+03	 1.792199951E+03
 1.166489849E+03	 1.803199951E+03
 1.167043837E+03	 1.799800049E+03
 1.167597767E+03	 1.812599976E+03
 1.168151638E+03	 1.813199951E+03
 1.168705452E+03	 1.799599976E+03
 1.169259207E+03	 1.805800049E+03
 1.169812904E+03	 1.805400024E+03
 1.170366544E+03	 1.805000000E+03
 1.170920125E+03	 1.821800049E+03
 1.171473648E+03	 1.814599976E+03
 1.172027113E+03	 1.821800049E+03
 1.172580520E+03	 1.818000000E+03
 1.173133869E+03	 1.814000000E+03
 1.173687160E+03	 1.816599976E+03
 1.174240393E+03	 1.821400024E+03
 1.174793567E+03	 1.821599976E+03
 1.175346684E+03	 1.799199951E+03
 1.175899743E+03	 1.826199951E+03
 1.176452744E+03	 1.821199951E+03
 1.177005686E+03	 1.828800049E+03
 1.177558571E+03	 1.809000000E+03
 1.178111398E+03	 1.835000000E+03
 1.178664167E+03	 1.827199951E+03
 1.179216877E+03	 1.831599976E+03
 1.179769530E+03	 1.821000000E+03
 1.180322125E+03	 1.821599976E+03
 1.180874661E+03	 1.832000000E+03
 1.181427140E+03	 1.827599976E+03
 1.181979561E+03	 1.831400024E+03
 1.182531924E+03	 1.835400024E+03
 1.183084228E+03	 1.834800049E+03
 1.183636475E+03	 1.829800049E+03
 1.184188664E+03	 1.839400024E+03
 1.184740795E+03	 1.829000000E+03
 1.185292868E+03	 1.842000000E+03
 1.185844883E+03	 1.833400024E+03
 1.186396840E+03	 1.835599976E+03
 1.186948739E+03	 1.856199951E+03
 1.187500581E+03	 1.839599976E+03
 1.188052364E+03	 1.847000000E+03
 1.188604089E+03	 1.854199951E+03
 1.189155757E+03	 1.844000000E+03
 1.189707366E+03	 1.856000000E+03
 1.190258918E+03	 1.851599976E+03
 1.190810412E+03	 1.840599976E+03
 1.191361847E+03	 1.857400024E+03
 1.191913225E+03	 1.855800049E+03
 1.192464545E+03	 1.870599976E+03
 1.193015808E+03	 1.849800049E+03
 1.193567012E+03	 1.870199951E+03
 1.194118158E+03	 1.858000000E+03
 1.194669247E+03	 1.871599976E+03
 1.195220278E+03	 1.851599976E+03
 1.195771250E+03	 1.855800049E+03
 1.196322165E+03	 1.877599976E+03
 1.196873022E+03	 1.863199951E+03
 1.197423822E+03	 1.851400024E+03
 1.197974563E+03	 1.862000000E+03
 1.198525247E+03	 1.861599976E+03
 1.199075872E+03	 1.880199951E+03
 1.199626440E+03	 1.854199951E+03
 1.200176950E+03	 1.868000000E+03
 1.200727403E+03	 1.866199951E+03
 1.201277797E+03	 1.869400024E+03
 1.201828134E+03	 1.872800049E+03
 1.202378412E+03	 1.894400024E+03
 1.202928633E+03	 1.868599976E+03
 1.203478797E+03	 1.876599976E+03
 1.204028902E+03	 1.885599976E+03
 1.204578950E+03	 1.885000000E+03
 1.205128940E+03	 1.878199951E+03
 1.205678872E+03	 1.865800049E+03
 1.206228746E+03	 1.875800049E+03
 1.206778562E+03	 1.869800049E+03
 1.207328321E+03	 1.898199951E+03
 1.207878022E+03	 1.894599976E+03
 1.208427665E+03	 1.885400024E+03
 1.208977251E+03	 1.889199951E+03
 1.209526779E+03	 1.885000000E+03
 1.210076249E+03	 1.894000000E+03
 1.210625661E+03	 1.900599976E+03
 1.211175015E+03	 1.900000000E+03
 1.211724312E+03	 1.902199951E+03
 1.212273551E+03	 1.899000000E+03
 1.212822733E+03	 1.905800049E+03
 1.213371856E+03	 1.913599976E+03
 1.213920922E+03	 1.909400024E+03
 1.214469930E+03	 1.903000000E+03
 1.215018881E+03	 1.917199951E+03
 1.215567774E+03	 1.893800049E+03
 1.216116609E+03	 1.928800049E+03
 1.216665386E+03	 1.926000000E+03
 1.217214106E+03	 1.915000000E+03
 1.217762768E+03	 1.935199951E+03
 1.218311372E+03	 1.908400024E+03
 1.218859919E+03	 1.913199951E+03
 1.219408408E+03	 1.912000000E+03
 1.219956840E+03	 1.926400024E+03
 1.220505213E+03	 1.913199951E+03
 1.221053530E+03	 1.914199951E+03
 1.221601788E+03	 1.930599976E+03
 1.222149989E+03	 1.923400024E+03
 1.222698132E+03	 1.937400024E+03
 1.223246218E+03	 1.934199951E+03
 1.223794245E+03	 1.933000000E+03
 1.224342216E+03	 1.948800049E+03
 1.224890128E+03	 1.938599976E+03
 1.225437983E+03	 1.948199951E+03
 1.225985781E+03	 1.949400024E+03
 1.226533521E+03	 1.939400024E+03
 1.227081203E+03	 1.954199951E+03
 1.227628828E+03	 1.946599976E+03
 1.228176395E+03	 1.952400024E+03
 1.228723904E+03	 1.938000000E+03
 1.229271356E+03	 1.956400024E+03
 1.229818750E+03	 1.958000000E+03
 1.230366087E+03	 1.943800049E+03
 1.230913366E+03	 1.946000000E+03
 1.231460588E+03	 1.947599976E+03
 1.232007752E+03	 1.955599976E+03
 1.232554858E+03	 1.974599976E+03
 1.233101907E+03	 1.952400024E+03
 1.233648898E+03	 1.969000000E+03
 1.234195832E+03	 1.952000000E+03
 1.234742709E+03	 1.957800049E+03
 1.235289527E+03	 1.951199951E+03
 1.235836289E+03	 1.954199951E+03
 1.236382992E+03	 1.974199951E+03
 1.236929639E+03	 1.973400024E+03
 1.237476227E+03	 1.964199951E+03
 1.238022758E+03	 1.967599976E+03
 1.238569232E+03	 1.976199951E+03
 1.239115648E+03	 1.967000000E+03
 1.239662007E+03	 1.973000000E+03
 1.240208308E+03	 1.976199951E+03
 1.240754552E+03	 1.972800049E+03
 1.241300738E+03	 1.985400024E+03
 1.241846867E+03	 1.982199951E+03
 1.242392938E+03	 1.979199951E+03
 1.242938952E+03	 1.977800049E+03
 1.243484908E+03	 1.984199951E+03
 1.244030807E+03	 1.996400024E+03
 1.244576648E+03	 1.977800049E+03
 1.245122432E+03	 1.995800049E+03
 1.245668159E+03	 1.990000000E+03
 1.246213828E+03	 1.985400024E+03
 1.246759440E+03	 1.965199951E+03
 1.247304994E+03	 1.991400024E+03
 1.247850490E+03	 1.989000000E+03
 1.248395930E+03	 1.988400024E+03
 1.248941312E+03	 1.988199951E+03
 1.249486636E+03	 2.002000000E+03
 1.250031903E+03	 1.991400024E+03
 1.250577113E+03	 1.985400024E+03
 1.251122265E+03	 1.998800049E+03
 1.251667360E+03	 1.995199951E+03
 1.252212398E+03	 1.996800049E+03
 1.252757378E+03	 1.979599976E+03
 1.253302301E+03	 1.988400024E+03
 1.253847166E+03	 2.003800049E+03
 1.254391974E+03	 2.015599976E+03
 1.254936725E+03	 1.979599976E+03
 1.255481418E+03	 2.011599976E+03
 1.256026054E+03	 2.011400024E+03
 1.256570632E+03	 2.015199951E+03
 1.257115154E+03	 2.018000000E+03
 1.257659617E+03	 2.012800049E+03
 1.258204024E+03	 2.012599976E+03
 1.258748373E+03	 2.021599976E+03
 1.259292665E+03	 2.039400024E+03
 1.259836900E+03	 2.035199951E+03
 1.260381077E+03	 2.044199951E+03
 1.260925197E+03	 2.044800049E+03
 1.261469259E+03	 2.055000000E+03
 1.262013264E+03	 2.056199951E+03
 1.262557212E+03	 2.048199951E+03
 1.263101103E+03	 2.062800049E+03
 1.263644936E+03	 2.052399902E+03
 1.264188712E+03	 2.019800049E+03
 1.264732431E+03	 2.045800049E+03
 1.265276093E+03	 2.030199951E+03
 1.265819697E+03	 2.037800049E+03
 1.266363244E+03	 2.038199951E+03
 1.266906734E+03	 2.021199951E+03
 1.267450166E+03	 2.032199951E+03
 1.267993541E+03	 2.043400024E+03
 1.268536859E+03	 2.036000000E+03
 1.269080120E+03	 2.035599976E+03
 1.269623323E+03	 2.053600098E+03
 1.270166469E+03	 2.040400024E+03
 1.270709558E+03	 2.074800049E+03
 1.271252590E+03	 2.041400024E+03
 1.271795564E+03	 2.061600098E+03
 1.272338481E+03	 2.039599976E+03
 1.272881341E+03	 2.051199951E+03
 1.273424144E+03	 2.052399902E+03
 1.273966890E+03	 2.060199951E+03
 1.274509578E+03	 2.062000000E+03
 1.275052209E+03	 2.047000000E+03
 1.275594783E+03	 2.072199951E+03
 1.276137300E+03	 2.035800049E+03
 1.276679760E+03	 2.077600098E+03
 1.277222162E+03	 2.063399902E+03
 1.277764507E+03	 2.072800049E+03
 1.278306796E+03	 2.091800049E+03
 1.278849026E+03	 2.084800049E+03
 1.279391200E+03	 2.113399902E+03
 1.279933317E+03	 2.133000000E+03
 1.280475376E+03	 2.198199951E+03
 1.281017378E+03	 2.309199951E+03
 1.281559324E+03	 2.537600098E+03
 1.282101212E+03	 2.821000000E+03
 1.282643042E+03	 2.875000000E+03
 1.283184816E+03	 2.622800049E+03
 1.283726533E+03	 2.349600098E+03
 1.284268192E+03	 2.216600098E+03
 1.284809795E+03	 2.167600098E+03
 1.285351340E+03	 2.141000000E+03
 1.285892828E+03	 2.106000000E+03
 1.286434259E+03	 2.094399902E+03
 1.286975633E+03	 2.086800049E+03
 1.287516950E+03	 2.074600098E+03
 1.288058209E+03	 2.092800049E+03
 1.288599412E+03	 2.089000000E+03
 1.289140558E+03	 2.092000000E+03
 1.289681646E+03	 2.104199951E+03
 1.290222677E+03	 2.085600098E+03
 1.290763652E+03	 2.077800049E+03
 1.291304569E+03	 2.084199951E+03
 1.291845429E+03	 2.094199951E+03
 1.292386232E+03	 2.072199951E+03
 1.292926979E+03	 2.103000000E+03
 1.293467668E+03	 2.112000000E+03
 1.294008300E+03	 2.093600098E+03
 1.294548875E+03	 2.090800049E+03
 1.295089392E+03	 2.096600098E+03
 1.295629853E+03	 2.091600098E+03
 1.296170257E+03	 2.098199951E+03
 1.296710604E+03	 2.095199951E+03
 1.297250894E+03	 2.111399902E+03
 1.297791127E+03	 2.115600098E+03
 1.298331303E+03	 2.092800049E+03
 1.298871422E+03	 2.112199951E+03
 1.299411483E+03	 2.093000000E+03
 1.299951488E+03	 2.113199951E+03
 1.300491436E+03	 2.087800049E+03
 1.301031327E+03	 2.089199951E+03
 1.301571161E+03	 2.114000000E+03
 1.302110938E+03	 2.115800049E+03
 1.302650658E+03	 2.112800049E+03
 1.303190321E+03	 2.119199951E+03
 1.303729927E+03	 2.103000000E+03
 1.304269476E+03	 2.126800049E+03
 1.304808968E+03	 2.112800049E+03
 1.305348403E+03	 2.147399902E+03
 1.305887781E+03	 2.110000000E+03
 1.306427102E+03	 2.099600098E+03
 1.306966367E+03	 2.125000000E+03
 1.307505574E+03	 2.125399902E+03
 1.308044725E+03	 2.125399902E+03
 1.308583818E+03	 2.124000000E+03
 1.309122855E+03	 2.132399902E+03
 1.309661835E+03	 2.124199951E+03
 1.310200757E+03	 2.132199951E+03
 1.310739623E+03	 2.147199951E+03
 1.311278432E+03	 2.136600098E+03
 1.311817185E+03	 2.112000000E+03
 1.312355880E+03	 2.127600098E+03
 1.312894518E+03	 2.141800049E+03
 1.313433100E+03	 2.128800049E+03
 1.313971624E+03	 2.129800049E+03
 1.314510092E+03	 2.139800049E+03
 1.315048503E+03	 2.137600098E+03
 1.315586857E+03	 2.137800049E+03
 1.316125154E+03	 2.129800049E+03
 1.316663394E+03	 2.149800049E+03
 1.317201578E+03	 2.154800049E+03
 1.317739704E+03	 2.120399902E+03
 1.318277774E+03	 2.143600098E+03
 1.318815787E+03	 2.153399902E+03
 1.319353743E+03	 2.134600098E+03
 1.319891642E+03	 2.164399902E+03
 1.320429485E+03	 2.127800049E+03
 1.320967270E+03	 2.152800049E+03
 1.321504999E+03	 2.144600098E+03
 1.322042671E+03	 2.154000000E+03
 1.322580286E+03	 2.160600098E+03
 1.323117845E+03	 2.150600098E+03
 1.323655346E+03	 2.151199951E+03
 1.324192791E+03	 2.159199951E+03
 1.324730179E+03	 2.148800049E+03
 1.325267511E+03	 2.156399902E+03
 1.325804785E+03	 2.143600098E+03
 1.326342003E+03	 2.158399902E+03
 1.326879164E+03	 2.158399902E+03
 1.327416268E+03	 2.166000000E+03
 1.327953315E+03	 2.164199951E+03
 1.328490306E+03	 2.162199951E+03
 1.329027240E+03	 2.175000000E+03
 1.329564117E+03	 2.183800049E+03
 1.330100937E+03	 2.163000000E+03
 1.330637701E+03	 2.174800049E+03
 1.331174408E+03	 2.176800049E+03
 1.331711058E+03	 2.171399902E+03
 1.332247652E+03	 2.171000000E+03
 1.332784188E+03	 2.164000000E+03
 1.333320668E+03	 2.193800049E+03
 1.333857092E+03	 2.195600098E+03
 1.334393458E+03	 2.184600098E+03
 1.334929768E+03	 2.159000000E+03
 1.335466022E+03	 2.163000000E+03
 1.336002218E+03	 2.195199951E+03
 1.336538358E+03	 2.176199951E+03
 1.337074441E+03	 2.184199951E+03
 1.337610468E+03	 2.175000000E+03
 1.338146438E+03	 2.163199951E+03
 1.338682351E+03	 2.176600098E+03
 1.339218207E+03	 2.187800049E+03
 1.339754007E+03	 2.201800049E+03
 1.340289750E+03	 2.189000000E+03
 1.340825437E+03	 2.187199951E+03
 1.341361067E+03	 2.168399902E+03
 1.341896640E+03	 2.221199951E+03
 1.342432156E+03	 2.190000000E+03
 1.342967616E+03	 2.181399902E+03
 1.343503020E+03	 2.189199951E+03
 1.344038366E+03	 2.193199951E+03
 1.344573657E+03	 2.185000000E+03
 1.345108890E+03	 2.203600098E+03
 1.345644067E+03	 2.176600098E+03
 1.346179187E+03	 2.211800049E+03
 1.346714251E+03	 2.190000000E+03
 1.347249258E+03	 2.195600098E+03
 1.347784208E+03	 2.192800049E+03
 1.348319102E+03	 2.193800049E+03
 1.348853939E+03	 2.187399902E+03
 1.349388720E+03	 2.179199951E+03
 1.349923444E+03	 2.195600098E+03
 1.350458112E+03	 2.201600098E+03
 1.350992723E+03	 2.197000000E+03
 1.351527277E+03	 2.208199951E+03
 1.352061775E+03	 2.201000000E+03
 1.352596216E+03	 2.208199951E+03
 1.353130601E+03	 2.189199951E+03
 1.353664929E+03	 2.196000000E+03
 1.354199201E+03	 2.187000000E+03
 1.354733416E+03	 2.197800049E+03
 1.355267575E+03	 2.211800049E+03
 1.355801677E+03	 2.212000000E+03
 1.356335722E+03	 2.211800049E+03
 1.356869711E+03	 2.207600098E+03
 1.357403644E+03	 2.202199951E+03
 1.357937520E+03	 2.229000000E+03
 1.358471340E+03	 2.206600098E+03
 1.359005103E+03	 2.223600098E+03
 1.359538809E+03	 2.212600098E+03
 1.360072459E+03	 2.208000000E+03
 1.360606053E+03	 2.198800049E+03
 1.361139590E+03	 2.199000000E+03
 1.361673070E+03	 2.214800049E+03
 1.362206494E+03	 2.213199951E+03
 1.362739862E+03	 2.204600098E+03
 1.363273173E+03	 2.221399902E+03
 1.363806428E+03	 2.211000000E+03
 1.364339626E+03	 2.248600098E+03
 1.364872768E+03	 2.230399902E+03
 1.365405853E+03	 2.203000000E+03
 1.365938882E+03	 2.206000000E+03
 1.366471855E+03	 2.214199951E+03
 1.367004771E+03	 2.213399902E+03
 1.367537630E+03	 2.210600098E+03
 1.368070434E+03	 2.235800049E+03
 1.368603180E+03	 2.237199951E+03
 1.369135871E+03	 2.214000000E+03
 1.369668505E+03	 2.256600098E+03
 1.370201082E+03	 2.232600098E+03
 1.370733603E+03	 2.238800049E+03
 1.371266068E+03	 2.211000000E+03
 1.371798476E+03	 2.238600098E+03
 1.372330828E+03	 2.227800049E+03
 1.372863124E+03	 2.231399902E+03
 1.373395363E+03	 2.236600098E+03
 1.373927546E+03	 2.251399902E+03
 1.374459672E+03	 2.225399902E+03
 1.374991743E+03	 2.251199951E+03
 1.375523756E+03	 2.253600098E+03
 1.376055714E+03	 2.247199951E+03
 1.376587615E+03	 2.237000000E+03
 1.377119459E+03	 2.248199951E+03
 1.377651248E+03	 2.240399902E+03
 1.378182980E+03	 2.259000000E+03
 1.378714655E+03	 2.247800049E+03
 1.379246274E+03	 2.270000000E+03
 1.379777837E+03	 2.253199951E+03
 1.380309344E+03	 2.264399902E+03
 1.380840794E+03	 2.263000000E+03
 1.381372188E+03	 2.266800049E+03
 1.381903526E+03	 2.263199951E+03
 1.382434808E+03	 2.279399902E+03
 1.382966033E+03	 2.297199951E+03
 1.383497201E+03	 2.328000000E+03
 1.384028314E+03	 2.349199951E+03
 1.384559370E+03	 2.381800049E+03
 1.385090370E+03	 2.440199951E+03
 1.385621314E+03	 2.616800049E+03
 1.386152201E+03	 2.986199951E+03
 1.386683032E+03	 3.589399902E+03
 1.387213807E+03	 3.844600098E+03
 1.387744526E+03	 3.460600098E+03
 1.388275188E+03	 2.895000000E+03
 1.388805794E+03	 2.610600098E+03
 1.389336344E+03	 2.459399902E+03
 1.389866838E+03	 2.365000000E+03
 1.390397275E+03	 2.334199951E+03
 1.390927656E+03	 2.326600098E+03
 1.391457981E+03	 2.315000000E+03
 1.391988250E+03	 2.308800049E+03
 1.392518462E+03	 2.272199951E+03
 1.393048619E+03	 2.287800049E+03
 1.393578719E+03	 2.304600098E+03
 1.394108762E+03	 2.279199951E+03
 1.394638750E+03	 2.281199951E+03
 1.395168682E+03	 2.284600098E+03
 1.395698557E+03	 2.275199951E+03
 1.396228376E+03	 2.290000000E+03
 1.396758139E+03	 2.285800049E+03
 1.397287845E+03	 2.291800049E+03
 1.397817496E+03	 2.280600098E+03
 1.398347090E+03	 2.304199951E+03
 1.398876628E+03	 2.311399902E+03
 1.399406110E+03	 2.289199951E+03
 1.399935536E+03	 2.300199951E+03
 1.400464906E+03	 2.274600098E+03
 1.400994219E+03	 2.277199951E+03
 1.401523477E+03	 2.300000000E+03
 1.402052678E+03	 2.297399902E+03
 1.402581823E+03	 2.281600098E+03
 1.403110912E+03	 2.299199951E+03
 1.403639945E+03	 2.307199951E+03
 1.404168922E+03	 2.283399902E+03
 1.404697842E+03	 2.311000000E+03
 1.405226707E+03	 2.316800049E+03
 1.405755515E+03	 2.323600098E+03
 1.406284267E+03	 2.315800049E+03
 1.406812964E+03	 2.321000000E+03
 1.407341604E+03	 2.330800049E+03
 1.407870188E+03	 2.333399902E+03
 1.408398716E+03	 2.343800049E+03
 1.408927187E+03	 2.335399902E+03
 1.409455603E+03	 2.336600098E+03
 1.409983963E+03	 2.346600098E+03
 1.410512266E+03	 2.335800049E+03
 1.411040514E+03	 2.322199951E+03
 1.411568705E+03	 2.336199951E+03
 1.412096841E+03	 2.300600098E+03
 1.412624920E+03	 2.297199951E+03
 1.413152944E+03	 2.314399902E+03
 1.413680911E+03	 2.306000000E+03
 1.414208822E+03	 2.320000000E+03
 1.414736677E+03	 2.288199951E+03
 1.415264476E+03	 2.306600098E+03
 1.415792220E+03	 2.298600098E+03
 1.416319907E+03	 2.310199951E+03
 1.416847538E+03	 2.282199951E+03
 1.417375113E+03	 2.306800049E+03
 1.417902632E+03	 2.301199951E+03
 1.418430095E+03	 2.315600098E+03
 1.418957502E+03	 2.325000000E+03
 1.419484853E+03	 2.314399902E+03
 1.420012148E+03	 2.319600098E+03
 1.420539387E+03	 2.308600098E+03
 1.421066570E+03	 2.331000000E+03
 1.421593698E+03	 2.306399902E+03
 1.422120769E+03	 2.304600098E+03
 1.422647784E+03	 2.300399902E+03
 1.423174743E+03	 2.313800049E+03
 1.423701647E+03	 2.305399902E+03
 1.424228494E+03	 2.312199951E+03
 1.424755285E+03	 2.325199951E+03
 1.425282021E+03	 2.326000000E+03
 1.425808700E+03	 2.332399902E+03
 1.426335324E+03	 2.313199951E+03
 1.426861891E+03	 2.314199951E+03
 1.427388403E+03	 2.301000000E+03
 1.427914859E+03	 2.301800049E+03
 1.428441259E+03	 2.306000000E+03
 1.428967602E+03	 2.323600098E+03
 1.429493890E+03	 2.317399902E+03
 1.430020123E+03	 2.295800049E+03
 1.430546299E+03	 2.318199951E+03
 1.431072419E+03	 2.342000000E+03
 1.431598483E+03	 2.323800049E+03
 1.432124492E+03	 2.316199951E+03
 1.432650445E+03	 2.335800049E+03
 1.433176341E+03	 2.323000000E+03
 1.433702182E+03	 2.316399902E+03
 1.434227967E+03	 2.353800049E+03
 1.434753696E+03	 2.307600098E+03
 1.435279370E+03	 2.337800049E+03
 1.435804987E+03	 2.327399902E+03
 1.436330549E+03	 2.334600098E+03
 1.436856054E+03	 2.302000000E+03
 1.437381504E+03	 2.307199951E+03
 1.437906898E+03	 2.347800049E+03
 1.438432236E+03	 2.409199951E+03
 1.438957519E+03	 2.494800049E+03
 1.439482745E+03	 2.461600098E+03
 1.440007916E+03	 2.355399902E+03
 1.440533031E+03	 2.331399902E+03
 1.441058090E+03	 2.349600098E+03
 1.441583093E+03	 2.347199951E+03
 1.442108041E+03	 2.339199951E+03
 1.442632932E+03	 2.326000000E+03
 1.443157768E+03	 2.312800049E+03
 1.443682548E+03	 2.343199951E+03
 1.444207272E+03	 2.323800049E+03
 1.444731941E+03	 2.365000000E+03
 1.445256554E+03	 2.349800049E+03
 1.445781111E+03	 2.325600098E+03
 1.446305612E+03	 2.356000000E+03
 1.446830057E+03	 2.359399902E+03
 1.447354447E+03	 2.333600098E+03
 1.447878781E+03	 2.329199951E+03
 1.448403059E+03	 2.320399902E+03
 1.448927281E+03	 2.323399902E+03
 1.449451448E+03	 2.356600098E+03
 1.449975559E+03	 2.316600098E+03
 1.450499614E+03	 2.339399902E+03
 1.451023613E+03	 2.348399902E+03
 1.451547557E+03	 2.354199951E+03
 1.452071445E+03	 2.343000000E+03
 1.452595277E+03	 2.327600098E+03
 1.453119054E+03	 2.347000000E+03
 1.453642774E+03	 2.343600098E+03
 1.454166440E+03	 2.346000000E+03
 1.454690049E+03	 2.334800049E+03
 1.455213603E+03	 2.360399902E+03
 1.455737101E+03	 2.316600098E+03
 1.456260543E+03	 2.341399902E+03
 1.456783930E+03	 2.348600098E+03
 1.457307261E+03	 2.361800049E+03
 1.457830536E+03	 2.342000000E+03
 1.458353756E+03	 2.364199951E+03
 1.458876920E+03	 2.315800049E+03
 1.459400028E+03	 2.348600098E+03
 1.459923081E+03	 2.353800049E+03
 1.460446078E+03	 2.343600098E+03
 1.460969019E+03	 2.365000000E+03
 1.461491905E+03	 2.333600098E+03
 1.462014735E+03	 2.327800049E+03
 1.462537509E+03	 2.335199951E+03
 1.463060228E+03	 2.342199951E+03
 1.463582891E+03	 2.356199951E+03
 1.464105499E+03	 2.356600098E+03
 1.464628051E+03	 2.363800049E+03
 1.465150547E+03	 2.363399902E+03
 1.465672988E+03	 2.359399902E+03
 1.466195373E+03	 2.367199951E+03
 1.466717702E+03	 2.348199951E+03
 1.467239976E+03	 2.356600098E+03
 1.467762195E+03	 2.348600098E+03
 1.468284357E+03	 2.345600098E+03
 1.468806464E+03	 2.372399902E+03
 1.469328516E+03	 2.354800049E+03
 1.469850512E+03	 2.364199951E+03
 1.470372452E+03	 2.359000000E+03
 1.470894337E+03	 2.377399902E+03
 1.471416167E+03	 2.369600098E+03
 1.471937940E+03	 2.355399902E+03
 1.472459659E+03	 2.353600098E+03
 1.472981321E+03	 2.358600098E+03
 1.473502928E+03	 2.351399902E+03
 1.474024480E+03	 2.371600098E+03
 1.474545976E+03	 2.347199951E+03
 1.475067416E+03	 2.349600098E+03
 1.475588801E+03	 2.359199951E+03
 1.476110131E+03	 2.360199951E+03
 1.476631405E+03	 2.355399902E+03
 1.477152623E+03	 2.359199951E+03
 1.477673786E+03	 2.371800049E+03
 1.478194894E+03	 2.378800049E+03
 1.478715946E+03	 2.374000000E+03
 1.479236942E+03	 2.369000000E+03
 1.479757883E+03	 2.389199951E+03
 1.480278768E+03	 2.363199951E+03
 1.480799598E+03	 2.368800049E+03
 1.481320373E+03	 2.352199951E+03
 1.481841092E+03	 2.376199951E+03
 1.482361755E+03	 2.388000000E+03
 1.482882363E+03	 2.353600098E+03
 1.483402916E+03	 2.374600098E+03
 1.483923413E+03	 2.365800049E+03
 1.484443855E+03	 2.366800049E+03
 1.484964241E+03	 2.373000000E+03
 1.485484572E+03	 2.383399902E+03
 1.486004847E+03	 2.381199951E+03
 1.486525067E+03	 2.370000000E+03
 1.487045232E+03	 2.394000000E+03
 1.487565341E+03	 2.372399902E+03
 1.488085395E+03	 2.353399902E+03
 1.488605393E+03	 2.391800049E+03
 1.489125336E+03	 2.361000000E+03
 1.489645223E+03	 2.386399902E+03
 1.490165055E+03	 2.356199951E+03
 1.490684832E+03	 2.381000000E+03
 1.491204553E+03	 2.362199951E+03
 1.491724219E+03	 2.393199951E+03
 1.492243829E+03	 2.357800049E+03
 1.492763385E+03	 2.366000000E+03
 1.493282884E+03	 2.375399902E+03
 1.493802329E+03	 2.387600098E+03
 1.494321718E+03	 2.392199951E+03
 1.494841051E+03	 2.376199951E+03
 1.495360329E+03	 2.374600098E+03
 1.495879552E+03	 2.364000000E+03
 1.496398720E+03	 2.350000000E+03
 1.496917832E+03	 2.369800049E+03
 1.497436889E+03	 2.365199951E+03
 1.497955890E+03	 2.366800049E+03
 1.498474837E+03	 2.388399902E+03
 1.498993727E+03	 2.382199951E+03
 1.499512563E+03	 2.383000000E+03
 1.500031343E+03	 2.384199951E+03
 1.500550068E+03	 2.381800049E+03
 1.501068738E+03	 2.393000000E+03
 1.501587352E+03	 2.370800049E+03
 1.502105911E+03	 2.383199951E+03
 1.502624414E+03	 2.384800049E+03
 1.503142863E+03	 2.398399902E+03
 1.503661256E+03	 2.395000000E+03
 1.504179594E+03	 2.399199951E+03
 1.504697876E+03	 2.399199951E+03
 1.505216103E+03	 2.384800049E+03
 1.505734275E+03	 2.389600098E+03
 1.506252392E+03	 2.377399902E+03
 1.506770454E+03	 2.376399902E+03
 1.507288460E+03	 2.387199951E+03
 1.507806411E+03	 2.402600098E+03
 1.508324306E+03	 2.382199951E+03
 1.508842147E+03	 2.366199951E+03
 1.509359932E+03	 2.387199951E+03
 1.509877662E+03	 2.369600098E+03
 1.510395337E+03	 2.381199951E+03
 1.510912956E+03	 2.385600098E+03
 1.511430520E+03	 2.409199951E+03
 1.511948029E+03	 2.398399902E+03
 1.512465483E+03	 2.383800049E+03
 1.512982882E+03	 2.410800049E+03
 1.513500225E+03	 2.405600098E+03
 1.514017513E+03	 2.392800049E+03
 1.514534746E+03	 2.379399902E+03
 1.515051924E+03	 2.379199951E+03
 1.515569047E+03	 2.378600098E+03
 1.516086114E+03	 2.380800049E+03
 1.516603126E+03	 2.364199951E+03
 1.517120084E+03	 2.377800049E+03
 1.517636985E+03	 2.388199951E+03
 1.518153832E+03	 2.371399902E+03
 1.518670624E+03	 2.381800049E+03
 1.519187360E+03	 2.390800049E+03
 1.519704041E+03	 2.393000000E+03
 1.520220667E+03	 2.367399902E+03
 1.520737238E+03	 2.359399902E+03
 1.521253754E+03	 2.374600098E+03
 1.521770215E+03	 2.397800049E+03
 1.522286620E+03	 2.384199951E+03
 1.522802971E+03	 2.358399902E+03
 1.523319266E+03	 2.397600098E+03
 1.523835506E+03	 2.379000000E+03
 1.524351691E+03	 2.402399902E+03
 1.524867821E+03	 2.377600098E+03
 1.525383896E+03	 2.371399902E+03
 1.525899916E+03	 2.383600098E+03
 1.526415881E+03	 2.377800049E+03
 1.526931790E+03	 2.396199951E+03
 1.527447645E+03	 2.389000000E+03
 1.527963444E+03	 2.374600098E+03
 1.528479188E+03	 2.395800049E+03
 1.528994877E+03	 2.398800049E+03
 1.529510512E+03	 2.363199951E+03
 1.530026091E+03	 2.371800049E+03
 1.530541615E+03	 2.386800049E+03
 1.531057084E+03	 2.381800049E+03
 1.531572497E+03	 2.376399902E+03
 1.532087856E+03	 2.362199951E+03
 1.532603160E+03	 2.366000000E+03
 1.533118409E+03	 2.372600098E+03
 1.533633603E+03	 2.369399902E+03
 1.534148741E+03	 2.388399902E+03
 1.534663825E+03	 2.378399902E+03
 1.535178853E+03	 2.365399902E+03
 1.535693827E+03	 2.371000000E+03
 1.536208746E+03	 2.387399902E+03
 1.536723609E+03	 2.374600098E+03
 1.537238418E+03	 2.377000000E+03
 1.537753171E+03	 2.367000000E+03
 1.538267870E+03	 2.364600098E+03
 1.538782514E+03	 2.380000000E+03
 1.539297102E+03	 2.378399902E+03
 1.539811636E+03	 2.383800049E+03
 1.540326114E+03	 2.389399902E+03
 1.540840538E+03	 2.367000000E+03
 1.541354907E+03	 2.372199951E+03
 1.541869220E+03	 2.371399902E+03
 1.542383479E+03	 2.392399902E+03
 1.542897683E+03	 2.373800049E+03
 1.543411832E+03	 2.386800049E+03
 1.543925926E+03	 2.380399902E+03
 1.544439964E+03	 2.385800049E+03
 1.544953948E+03	 2.368199951E+03
 1.545467877E+03	 2.362600098E+03
 1.545981752E+03	 2.375600098E+03
 1.546495571E+03	 2.380000000E+03
 1.547009335E+03	 2.382800049E+03
 1.547523044E+03	 2.397399902E+03
 1.548036699E+03	 2.372399902E+03
 1.548550298E+03	 2.404800049E+03
 1.549063843E+03	 2.378600098E+03
 1.549577333E+03	 2.412000000E+03
 1.550090767E+03	 2.390600098E+03
 1.550604147E+03	 2.372399902E+03
 1.551117472E+03	 2.366800049E+03
 1.551630742E+03	 2.376600098E+03
 1.552143958E+03	 2.385399902E+03
 1.552657118E+03	 2.368199951E+03
 1.553170224E+03	 2.378600098E+03
 1.553683274E+03	 2.387800049E+03
 1.554196270E+03	 2.394600098E+03
 1.554709211E+03	 2.377600098E+03
 1.555222097E+03	 2.372000000E+03
 1.555734928E+03	 2.382000000E+03
 1.556247705E+03	 2.378000000E+03
 1.556760426E+03	 2.378600098E+03
 1.557273093E+03	 2.380199951E+03
 1.557785705E+03	 2.384600098E+03
 1.558298262E+03	 2.372199951E+03
 1.558810764E+03	 2.421399902E+03
 1.559323211E+03	 2.372600098E+03
 1.559835604E+03	 2.413000000E+03
 1.560347941E+03	 2.387600098E+03
 1.560860224E+03	 2.399600098E+03
 1.561372452E+03	 2.381800049E+03
 1.561884626E+03	 2.391199951E+03
 1.562396744E+03	 2.392600098E+03
 1.562908808E+03	 2.379600098E+03
 1.563420817E+03	 2.400800049E+03
 1.563932771E+03	 2.380399902E+03
 1.564444671E+03	 2.386800049E+03
 1.564956515E+03	 2.367000000E+03
 1.565468305E+03	 2.396000000E+03
 1.565980040E+03	 2.370600098E+03
 1.566491721E+03	 2.395000000E+03
 1.567003346E+03	 2.397399902E+03
 1.567514917E+03	 2.366600098E+03
 1.568026433E+03	 2.387199951E+03
 1.568537894E+03	 2.380399902E+03
 1.569049301E+03	 2.373600098E+03
 1.569560653E+03	 2.374000000E+03
 1.570071950E+03	 2.416600098E+03
 1.570583192E+03	 2.391199951E+03
 1.571094380E+03	 2.393000000E+03
 1.571605513E+03	 2.404000000E+03
 1.572116591E+03	 2.399000000E+03
 1.572627615E+03	 2.403600098E+03
 1.573138584E+03	 2.397399902E+03
 1.573649498E+03	 2.408199951E+03
 1.574160357E+03	 2.398600098E+03
 1.574671162E+03	 2.383199951E+03
 1.575181912E+03	 2.407600098E+03
 1.575692608E+03	 2.395199951E+03
 1.576203248E+03	 2.410600098E+03
 1.576713834E+03	 2.384000000E+03
 1.577224366E+03	 2.397800049E+03
 1.577734843E+03	 2.402000000E+03
 1.578245265E+03	 2.414199951E+03
 1.578755632E+03	 2.395000000E+03
 1.579265945E+03	 2.405199951E+03
 1.579776203E+03	 2.385600098E+03
 1.580286406E+03	 2.397600098E+03
 1.580796555E+03	 2.404600098E+03
 1.581306649E+03	 2.402199951E+03
 1.581816689E+03	 2.410399902E+03
 1.582326674E+03	 2.401399902E+03
 1.582836604E+03	 2.408399902E+03
 1.583346480E+03	 2.391000000E+03
 1.583856301E+03	 2.421399902E+03
 1.584366067E+03	 2.393199951E+03
 1.584875779E+03	 2.405000000E+03
 1.585385437E+03	 2.394600098E+03
 1.585895039E+03	 2.412800049E+03
 1.586404587E+03	 2.401800049E+03
 1.586914081E+03	 2.413000000E+03
 1.587423520E+03	 2.403399902E+03
 1.587932904E+03	 2.417199951E+03
 1.588442234E+03	 2.384399902E+03
 1.588951509E+03	 2.401600098E+03
 1.589460730E+03	 2.399399902E+03
 1.589969896E+03	 2.406800049E+03
 1.590479007E+03	 2.415800049E+03
 1.590988064E+03	 2.419399902E+03
 1.591497067E+03	 2.415800049E+03
 1.592006015E+03	 2.415800049E+03
